-2.6817e-010,-6.3474e-010,5.4599e-010,-4.9969e-010,1.6785e-010,2.4174e-009,1.0939e-009,1.2868e-009,-6.6175e-010,-1.4991e-009,6.3474e-010,6.6561e-010,1.0206e-009,3.1737e-009,1.3312e-010,7.5146e-009,-8.5468e-010,-9.0484e-010,7.5995e-009,1.5377e-009,-1.1383e-010,-4.6882e-010,6.4632e-010,9.4536e-011
-7.8042e-009,-1.7644e-008,1.5169e-008,-1.3611e-008,4.9431e-009,6.6829e-008,2.9901e-008,3.5479e-008,-1.8152e-008,-4.1301e-008,1.7799e-008,1.8405e-008,2.7914e-008,8.7562e-008,3.6594e-009,2.0789e-007,-2.3425e-008,-2.485e-008,2.0975e-007,4.2541e-008,-3.3847e-009,-1.3098e-008,1.7864e-008,2.5198e-009
-1.1001e-007,-2.3837e-007,2.0481e-007,-1.8013e-007,7.0701e-008,8.9815e-007,3.9706e-007,4.7518e-007,-2.4186e-007,-5.5309e-007,2.4257e-007,2.4726e-007,3.7064e-007,1.1746e-006,4.8652e-008,2.7954e-006,-3.1198e-007,-3.3189e-007,2.8137e-006,5.7243e-007,-4.8812e-008,-1.7786e-007,2.3974e-007,3.2484e-008
-1.001e-006,-2.0849e-006,1.7902e-006,-1.5427e-006,6.5417e-007,7.8176e-006,3.4127e-006,4.1182e-006,-2.0857e-006,-4.7966e-006,2.1406e-006,2.1506e-006,3.1826e-006,1.0205e-005,4.1655e-007,2.434e-005,-2.6894e-006,-2.8722e-006,2.4437e-005,4.992e-006,-4.5476e-007,-1.5638e-006,2.0811e-006,2.6968e-007
-6.6078e-006,-1.3267e-005,1.1384e-005,-9.6089e-006,4.4002e-006,4.953e-005,2.1337e-005,2.5953e-005,-1.3084e-005,-3.028e-005,1.3748e-005,1.3613e-005,1.9858e-005,6.4557e-005,2.5794e-006,0.00015423,-1.6862e-005,-1.8103e-005,0.00015443,3.1717e-005,-3.0762e-006,-1.0004e-005,1.3131e-005,1.6195e-006
-3.372e-005,-6.5427e-005,5.6103e-005,-4.6372e-005,2.2922e-005,0.00024334,0.00010339,0.00012669,-6.3614e-005,-0.00014826,6.8477e-005,6.6825e-005,9.5907e-005,0.00031676,1.2295e-005,0.00075775,-8.1898e-005,-8.8546e-005,0.00075643,0.00015648,-1.6099e-005,-4.9603e-005,6.4162e-005,7.4927e-006
-0.00013836,-0.00026005,0.00022284,-0.00018033,9.6186e-005,0.00096427,0.00040391,0.0004982,-0.00024938,-0.00058571,0.00027514,0.00026474,0.00037287,0.0012541,4.6869e-005,0.0030022,-0.0003204,-0.00034959,0.0029869,0.0006238,-6.7827e-005,-0.0001983,0.0002525,2.7784e-005
-0.00046866,-0.00085501,0.00073234,-0.00058011,0.00033385,0.003164,0.0013062,0.0016197,-0.00080945,-0.0019173,0.00091575,0.00086946,0.0011979,0.0041133,0.00014643,0.009848,-0.0010361,-0.0011438,0.0097599,0.0020644,-0.00023636,-0.00065622,0.00082162,8.4905e-005
-0.0013344,-0.0023677,0.0020278,-0.0015723,0.00097643,0.0087546,0.0035618,0.0044328,-0.002216,-0.0052982,0.0025719,0.0024124,0.0032391,0.011385,0.00038096,0.027238,-0.0028186,-0.0031588,0.026869,0.0057812,-0.00069469,-0.0018314,0.0022515,0.00021868
-0.003234,-0.0055912,0.0047911,-0.0036366,0.0024386,0.020689,0.0082964,0.010337,-0.0051845,-0.012523,0.0061745,0.0057328,0.0074669,0.026934,0.00083306,0.06433,-0.0065276,-0.0074555,0.063097,0.013895,-0.0017477,-0.004369,0.0052627,0.00048544
-0.0067253,-0.011349,0.0097411,-0.0072417,0.0052494,0.042119,0.016655,0.0207,-0.010459,-0.025553,0.012783,0.011782,0.014809,0.054951,0.0015367,0.13084,-0.012962,-0.015162,0.12739,0.028962,-0.0038083,-0.0089979,0.010585,0.00095484
-0.012052,-0.019889,0.017127,-0.012484,0.0098012,0.074236,0.028972,0.035718,-0.018297,-0.045276,0.02294,0.02108,0.025427,0.097192,0.0023867,0.23023,-0.022136,-0.026674,0.22195,0.05277,-0.0072598,-0.01612,0.018414,0.0017285
-0.018619,-0.030112,0.026084,-0.018679,0.015929,0.11348,0.043771,0.053052,-0.027823,-0.069873,0.035743,0.03296,0.037951,0.14934,0.0030989,0.35082,-0.032452,-0.040582,0.33353,0.084557,-0.012223,-0.025284,0.027764,0.0030147
-0.024698,-0.039261,0.034344,-0.02425,0.022559,0.15021,0.057375,0.067339,-0.036746,-0.09394,0.04824,0.045097,0.049401,0.19908,0.0033444,0.46122,-0.040511,-0.053052,0.42951,0.11976,-0.018361,-0.034978,0.036234,0.0052481
-0.027869,-0.043761,0.038874,-0.027227,0.027799,0.17128,0.064948,0.071779,-0.041969,-0.10977,0.055977,0.053952,0.056361,0.22912,0.0031033,0.5179,-0.042286,-0.058629,0.46653,0.1507,-0.024903,-0.04316,0.040736,0.0091322
-0.026322,-0.04126,0.037484,-0.026246,0.029706,0.16686,0.062959,0.06181,-0.041122,-0.11104,0.055042,0.056345,0.057074,0.22568,0.0030797,0.48626,-0.035517,-0.05275,0.41271,0.16974,-0.03094,-0.048506,0.039128,0.015396
-0.020389,-0.032758,0.030541,-0.021425,0.027431,0.13789,0.051727,0.038897,-0.034242,-0.097069,0.044745,0.051498,0.052981,0.1883,0.0048091,0.36494,-0.021905,-0.034882,0.27207,0.17341,-0.035755,-0.051499,0.031857,0.024174
-0.013042,-0.023017,0.021372,-0.014309,0.021978,0.098124,0.036035,0.011339,-0.024271,-0.074526,0.029054,0.042142,0.048137,0.13332,0.010135,0.19482,-0.0071023,-0.010123,0.092203,0.16459,-0.038881,-0.054253,0.022252,0.034306
-0.0085296,-0.018276,0.014578,-0.0067467,0.015848,0.067168,0.022753,-0.0096019,-0.015664,-0.054324,0.01517,0.03353,0.046356,0.086047,0.02012,0.040809,0.0022765,0.012487,-0.057076,0.15055,-0.039813,-0.058708,0.014865,0.043214
-0.0097234,-0.02238,0.013049,0.00049536,0.011599,0.057834,0.016669,-0.016459,-0.011708,-0.045153,0.0094726,0.030501,0.048064,0.06483,0.033995,-0.04613,0.0029521,0.024451,-0.12497,0.13789,-0.037794,-0.064446,0.012773,0.04792
-0.016091,-0.034196,0.015866,0.0081196,0.010251,0.066951,0.017456,-0.010511,-0.012441,-0.047997,0.013378,0.034353,0.049587,0.068267,0.048936,-0.060549,-0.0027254,0.022271,-0.1125,0.12803,-0.032215,-0.068155,0.015762,0.046918
-0.024065,-0.048554,0.018906,0.017168,0.010699,0.077732,0.020202,-0.00083833,-0.014826,-0.055905,0.022263,0.04182,0.045876,0.076261,0.061067,-0.042685,-0.0086513,0.0086723,-0.070082,0.11698,-0.023601,-0.065797,0.020787,0.041627
-0.029687,-0.060116,0.017963,0.02728,0.010565,0.07283,0.019254,0.0022247,-0.015166,-0.059335,0.028651,0.047195,0.034676,0.065655,0.067203,-0.045612,-0.0097591,-0.010155,-0.058868,0.099674,-0.01426,-0.056079,0.024285,0.035948
-0.031342,-0.066882,0.01203,0.036014,0.0077853,0.04785,0.012412,-0.0056483,-0.01191,-0.052883,0.027533,0.046334,0.018631,0.028724,0.066293,-0.095105,-0.0057368,-0.02881,-0.10466,0.07516,-0.0075286,-0.042239,0.024415,0.033732
-0.03026,-0.070236,0.0041027,0.040168,0.0017687,0.013976,0.0022021,-0.02047,-0.006578,-0.038137,0.019807,0.039669,0.0034018,-0.020554,0.059673,-0.17451,-0.00043265,-0.044804,-0.18097,0.048136,-0.0056212,-0.030141,0.021592,0.035793
-0.028514,-0.071768,-0.001166,0.038248,-0.0065592,-0.012525,-0.0066392,-0.034146,-0.0020814,-0.020811,0.011172,0.031853,-0.0066776,-0.05797,0.050077,-0.24528,0.0023655,-0.057267,-0.23421,0.025573,-0.0076576,-0.02389,0.017319,0.039004
-0.026663,-0.07038,-0.0010397,0.032051,-0.015542,-0.024623,-0.011172,-0.041301,6.5458e-005,-0.0051451,0.0074754,0.028237,-0.011671,-0.06878,0.040172,-0.28289,0.0026424,-0.064426,-0.2285,0.01136,-0.0098425,-0.022629,0.012821,0.038661
-0.023437,-0.063023,0.0033495,0.025839,-0.023634,-0.029966,-0.012358,-0.042918,0.001244,0.0095244,0.010333,0.03088,-0.015271,-0.058971,0.031523,-0.29556,0.0037126,-0.063332,-0.17232,0.0033775,-0.0082274,-0.021495,0.0087246,0.032596
-0.017663,-0.048634,0.0080658,0.023578,-0.029804,-0.042862,-0.01367,-0.044143,0.0046941,0.027574,0.016452,0.03733,-0.021052,-0.04878,0.024391,-0.31094,0.0081326,-0.05272,-0.10654,-0.0050108,-0.0020402,-0.016112,0.0055948,0.023677
-0.010252,-0.03113,0.0093658,0.026333,-0.033552,-0.070372,-0.017667,-0.048922,0.012906,0.053047,0.020795,0.043066,-0.029236,-0.054672,0.018147,-0.34612,0.014238,-0.03613,-0.06792,-0.020787,0.0054118,-0.0066793,0.0041743,0.018256
-0.0039647,-0.017756,0.0061987,0.031848,-0.034886,-0.10515,-0.023637,-0.056537,0.025678,0.086481,0.020595,0.045433,-0.036802,-0.07577,0.01186,-0.39053,0.017087,-0.021337,-0.061695,-0.047745,0.0094672,0.0021403,0.0047071,0.021315
-0.0010583,-0.013519,0.00050813,0.03653,-0.034346,-0.13124,-0.028253,-0.062807,0.040312,0.12472,0.016857,0.045566,-0.040643,-0.096245,0.004826,-0.41707,0.013174,-0.015396,-0.065399,-0.085435,0.0083659,0.0056471,0.0061108,0.032023
-0.0011915,-0.016737,-0.0044698,0.038127,-0.032903,-0.13725,-0.028498,-0.06423,0.053493,0.16278,0.01252,0.046711,-0.040724,-0.10069,-0.0030241,-0.40916,0.0043024,-0.01912,-0.056135,-0.12989,0.005189,0.0040022,0.0062408,0.043478
-0.0017743,-0.020214,-0.006363,0.037031,-0.031549,-0.12521,-0.024173,-0.060968,0.063072,0.1956,0.0094053,0.050671,-0.040322,-0.088255,-0.01096,-0.377,-0.0034364,-0.026152,-0.033457,-0.1745,0.0054057,0.0031209,0.0034266,0.047251
-0.00046993,-0.017439,-0.0048017,0.035427,-0.030777,-0.10802,-0.017919,-0.056214,0.068436,0.21865,0.0067974,0.055829,-0.04318,-0.073057,-0.017728,-0.3483,-0.0049469,-0.028048,-0.01744,-0.21057,0.011959,0.010479,-0.0020262,0.039504
0.0026476,-0.0082668,-0.0011535,0.035303,-0.030341,-0.098529,-0.012958,-0.053082,0.069714,0.22847,0.0026832,0.058578,-0.050148,-0.071117,-0.022278,-0.34365,-0.00073404,-0.021315,-0.026568,-0.22861,0.022399,0.029219,-0.0078804,0.023981
0.0054252,0.001241,0.0025321,0.037003,-0.029571,-0.10033,-0.010688,-0.052155,0.067089,0.22399,-0.0038191,0.05669,-0.058242,-0.08576,-0.024563,-0.3602,0.0036696,-0.010165,-0.058306,-0.22128,0.031006,0.055526,-0.011667,0.0095064
0.0060931,0.0048216,0.0045362,0.039235,-0.028026,-0.10747,-0.010185,-0.051626,0.060987,0.2079,-0.011209,0.051254,-0.062844,-0.10436,-0.025861,-0.37776,0.0030831,-0.0023413,-0.0905,-0.18712,0.03425,0.081519,-0.012531,0.0038482
0.0054,0.0023208,0.0040364,0.040187,-0.025939,-0.11187,-0.0097522,-0.049332,0.052632,0.18617,-0.016606,0.045359,-0.061194,-0.1089,-0.028399,-0.37927,-0.0021753,-0.0015572,-0.10083,-0.13272,0.034524,0.10126,-0.011577,0.0085873
0.0063165,0.00042859,0.0012943,0.038775,-0.024047,-0.11085,-0.0088343,-0.044456,0.043903,0.16498,-0.018021,0.040887,-0.054426,-0.091155,-0.034506,-0.36531,-0.0063206,-0.0033398,-0.085265,-0.071185,0.038319,0.11487,-0.010521,0.018789
0.011568,0.0071009,-0.0023932,0.035314,-0.022913,-0.1081,-0.0084574,-0.037575,0.036264,0.14709,-0.015915,0.036591,-0.046773,-0.059799,-0.045715,-0.35019,-0.0034035,0.0017963,-0.059173,-0.017156,0.050028,0.12747,-0.010105,0.027409
0.021276,0.02477,-0.0050676,0.031434,-0.022349,-0.10845,-0.0098654,-0.029595,0.029817,0.13081,-0.012834,0.029261,-0.04281,-0.034262,-0.061957,-0.3456,0.0070544,0.020447,-0.042055,0.019244,0.066904,0.14394,-0.009785,0.030726
0.032807,0.048511,-0.0049828,0.029402,-0.021493,-0.11213,-0.012754,-0.021001,0.023652,0.11293,-0.011568,0.016779,-0.044833,-0.030987,-0.080885,-0.34908,0.01942,0.050621,-0.041116,0.036077,0.080042,0.16403,-0.0088612,0.030492
0.042832,0.070704,-0.0017692,0.031068,-0.019564,-0.114,-0.014881,-0.012064,0.017359,0.093002,-0.013336,0.0001955,-0.052066,-0.053132,-0.097632,-0.34768,0.026952,0.083319,-0.04797,0.039013,0.081043,0.18193,-0.0076707,0.031438
0.04968,0.087813,0.0029033,0.036818,-0.016643,-0.10804,-0.01358,-0.0034166,0.012139,0.074834,-0.017291,-0.016905,-0.061825,-0.090822,-0.10576,-0.33199,0.027794,0.10998,-0.049197,0.037045,0.068829,0.19041,-0.0074741,0.036606
0.053991,0.10308,0.006029,0.045144,-0.013752,-0.092773,-0.0080002,0.0039829,0.010132,0.063373,-0.02142,-0.03094,-0.071477,-0.13006,-0.099835,-0.30581,0.026331,0.12912,-0.03925,0.03704,0.050699,0.18625,-0.0090689,0.044566
0.057368,0.12275,0.0053036,0.053296,-0.012075,-0.072469,-0.00016987,0.0095891,0.012335,0.059596,-0.023935,-0.040468,-0.079719,-0.16221,-0.078765,-0.28268,0.028668,0.14627,-0.02406,0.040163,0.036677,0.17231,-0.011597,0.050646
0.060517,0.14928,0.0011384,0.05879,-0.011952,-0.053761,0.0061256,0.013913,0.017096,0.058452,-0.024121,-0.046385,-0.086496,-0.18706,-0.047571,-0.27332,0.036452,0.16743,-0.01385,0.041986,0.031932,0.15497,-0.012953,0.05071
0.062636,0.17765,-0.0031852,0.060829,-0.012522,-0.040868,0.007917,0.018264,0.02083,0.052417,-0.022336,-0.050495,-0.092019,-0.20877,-0.015693,-0.27629,0.044876,0.19203,-0.013521,0.03602,0.033617,0.13919,-0.011622,0.043983
0.062503,0.19801,-0.003827,0.06056,-0.012377,-0.033694,0.0051308,0.0237,0.020516,0.037976,-0.019556,-0.05397,-0.095888,-0.22961,0.0079642,-0.27982,0.046803,0.21196,-0.019627,0.018495,0.034411,0.12537,-0.0082483,0.032697
0.060071,0.20267,0.00041775,0.059915,-0.01072,-0.029858,0.00054477,0.03014,0.01579,0.019191,-0.016971,-0.056859,-0.096969,-0.24712,0.020131,-0.27168,0.039326,0.21756,-0.025366,-0.0085045,0.029289,0.1103,-0.0052945,0.019445
0.056936,0.19174,0.0067684,0.059901,-0.0080818,-0.028108,-0.0023845,0.036452,0.0088063,0.0047883,-0.015665,-0.058675,-0.09386,-0.25606,0.024611,-0.24718,0.026792,0.20536,-0.027435,-0.037477,0.019518,0.091176,-0.0049074,0.0051487
0.055093,0.17292,0.010398,0.05968,-0.0060409,-0.029683,-0.0021471,0.041474,0.0021927,0.00096862,-0.01618,-0.059268,-0.085287,-0.25238,0.028673,-0.20899,0.017483,0.18088,-0.027963,-0.059346,0.010815,0.068976,-0.0069256,-0.010457
0.055017,0.15581,0.008241,0.057128,-0.0061196,-0.036447,-0.00018733,0.045045,-0.0028383,0.0062467,-0.018031,-0.05923,-0.070089,-0.23524,0.036962,-0.16095,0.016798,0.15429,-0.030593,-0.068481,0.0078589,0.048384,-0.0089815,-0.026712
0.054794,0.14514,0.0014029,0.050422,-0.0086495,-0.047811,0.0004995,0.048125,-0.0065013,0.012975,-0.019769,-0.059639,-0.047111,-0.20612,0.047629,-0.10328,0.022871,0.1329,-0.035612,-0.065919,0.010352,0.034448,-0.0087397,-0.040942
0.051293,0.13822,-0.0059688,0.039358,-0.012368,-0.059526,-0.001979,0.051863,-0.0089358,0.014187,-0.020022,-0.061494,-0.015609,-0.16674,0.053712,-0.033688,0.028399,0.11685,-0.039297,-0.058788,0.013875,0.028803,-0.0062083,-0.049986
0.042684,0.12828,-0.010328,0.025485,-0.015044,-0.065724,-0.006712,0.05636,-0.0091308,0.0095055,-0.018941,-0.065226,0.023764,-0.11869,0.048519,0.047863,0.027008,0.10115,-0.037853,-0.056136,0.014209,0.028557,-0.0038566,-0.053041
0.030389,0.11098,-0.011535,0.01111,-0.014798,-0.062724,-0.010651,0.06024,-0.0056984,0.0047144,-0.018635,-0.07047,0.068001,-0.065295,0.0306,0.1365,0.01861,0.081506,-0.031617,-0.063494,0.01083,0.028618,-0.0042981,-0.052815
0.018737,0.08854,-0.012316,-0.0018757,-0.011305,-0.051613,-0.011067,0.061545,0.001135,0.0054552,-0.021644,-0.076054,0.1117,-0.013297,0.0044693,0.22415,0.0092359,0.058549,-0.025173,-0.079348,0.0065173,0.025393,-0.0076771,-0.053335
0.01228,0.068396,-0.015065,-0.012504,-0.0060516,-0.037554,-0.0077126,0.059353,0.008438,0.011032,-0.028304,-0.080228,0.14825,0.028138,-0.022994,0.30292,0.0056826,0.037014,-0.023243,-0.095758,0.0039971,0.018876,-0.011294,-0.056068
0.012558,0.057221,-0.019176,-0.020484,-0.0013407,-0.026297,-0.0029142,0.054838,0.01186,0.014272,-0.035391,-0.081295,0.17191,0.051555,-0.046986,0.36609,0.009739,0.021096,-0.026386,-0.10292,0.0032518,0.011704,-0.011939,-0.058107
0.0168,0.055481,-0.021492,-0.02579,0.001362,-0.020388,0.00036773,0.050688,0.00858,0.0078161,-0.037861,-0.078657,0.17991,0.055778,-0.066291,0.4066,0.016937,0.010599,-0.030587,-0.094993,0.0021255,0.0063642,-0.0088326,-0.05474
0.019734,0.057106,-0.019404,-0.028612,0.0025118,-0.017816,0.00074498,0.04919,-0.00044654,-0.0088147,-0.032828,-0.073699,0.17359,0.047287,-0.081172,0.41724,0.020661,0.0013512,-0.031019,-0.073685,-0.00066241,0.0031647,-0.0044393,-0.044685
0.017315,0.054611,-0.013586,-0.029653,0.004058,-0.014039,-0.00095908,0.050483,-0.010906,-0.027922,-0.022528,-0.069536,0.15814,0.036837,-0.090365,0.39541,0.017839,-0.01059,-0.026375,-0.047259,-0.0034587,0.00061609,-0.0024367,-0.033307
0.0096022,0.04526,-0.0077482,-0.030282,0.0077094,-0.0058956,-0.0029092,0.052619,-0.01799,-0.03953,-0.013289,-0.069204,0.14041,0.0334,-0.090578,0.34923,0.01125,-0.024797,-0.019816,-0.025886,-0.0029278,-0.0024045,-0.0047004,-0.030246
0.00057139,0.032893,-0.00565,-0.032193,0.013247,0.0055122,-0.0039102,0.053532,-0.019521,-0.039447,-0.010831,-0.073278,0.12575,0.039582,-0.079289,0.29778,0.0067218,-0.036048,-0.015948,-0.016484,0.0024503,-0.0049217,-0.0099741,-0.042518
-0.0049196,0.023953,-0.0081322,-0.036678,0.018355,0.015226,-0.0039312,0.053215,-0.017007,-0.032501,-0.015591,-0.078945,0.11538,0.051576,-0.058256,0.26148,0.007968,-0.037983,-0.016864,-0.020394,0.010113,-0.0043379,-0.015178,-0.068377
-0.0045791,0.021481,-0.012804,-0.043937,0.020281,0.018011,-0.0032895,0.053906,-0.013991,-0.028219,-0.022182,-0.081825,0.10623,0.063267,-0.034157,0.24834,0.013735,-0.027808,-0.020956,-0.034899,0.014848,0.0010965,-0.017905,-0.097149
9.8945e-005,0.022653,-0.016433,-0.052849,0.018081,0.012531,-0.0017328,0.057795,-0.013176,-0.032775,-0.023729,-0.079547,0.093836,0.071023,-0.015124,0.24772,0.019557,-0.0083095,-0.025263,-0.056623,0.012898,0.0098563,-0.017874,-0.11569
0.0055032,0.022029,-0.017645,-0.061405,0.013646,0.0029565,0.0013043,0.064215,-0.014587,-0.044071,-0.01756,-0.074134,0.076241,0.075576,-0.0055704,0.23897,0.022188,0.014073,-0.028731,-0.083735,0.0050981,0.016964,-0.01644,-0.11678
0.0087631,0.017302,-0.017507,-0.067664,0.010572,-0.0033648,0.0054254,0.069153,-0.016011,-0.05383,-0.0074198,-0.070791,0.055874,0.079992,-0.0033911,0.20973,0.022486,0.033229,-0.033019,-0.11535,-0.0038034,0.016649,-0.015158,-0.10325
0.0093856,0.011933,-0.017784,-0.070803,0.011725,-0.0005156,0.0084899,0.068083,-0.015106,-0.054564,-0.00029872,-0.073621,0.037703,0.086049,-0.0018648,0.16867,0.024113,0.046199,-0.040106,-0.14916,-0.0090091,0.0062334,-0.014885,-0.085077
0.0086439,0.012024,-0.018881,-0.071561,0.01738,0.012496,0.0076065,0.059985,-0.011378,-0.045457,-0.00061606,-0.081709,0.025158,0.092367,0.0051029,0.1405,0.029394,0.053091,-0.049226,-0.17988,-0.0092529,-0.011519,-0.015871,-0.072148
0.0077374,0.020195,-0.019559,-0.071642,0.025408,0.031854,0.0014434,0.048902,-0.0065805,-0.032668,-0.006775,-0.089103,0.017498,0.095797,0.018343,0.14545,0.036257,0.054909,-0.056461,-0.2004,-0.0070372,-0.029545,-0.018073,-0.068352
0.0065951,0.032108,-0.018506,-0.072353,0.03327,0.05229,-0.0081677,0.041283,-0.0034383,-0.024425,-0.012924,-0.089117,0.011043,0.094467,0.032774,0.1799,0.039209,0.05159,-0.057738,-0.20502,-0.0056667,-0.040693,-0.020999,-0.07097
0.0042725,0.039033,-0.015943,-0.073557,0.04008,0.070804,-0.017065,0.041063,-0.0038422,-0.025325,-0.014165,-0.079629,0.0030215,0.08954,0.041055,0.21531,0.033642,0.041937,-0.052636,-0.19254,-0.0060978,-0.042283,-0.023432,-0.074714
0.00029015,0.034502,-0.013553,-0.073922,0.046939,0.087865,-0.021677,0.046653,-0.0078063,-0.034224,-0.010549,-0.065059,-0.005825,0.084111,0.038734,0.2188,0.019816,0.025254,-0.04536,-0.16718,-0.0065336,-0.037739,-0.023902,-0.076442
-0.0045066,0.019491,-0.012884,-0.07238,0.055211,0.10544,-0.021692,0.052449,-0.013719,-0.046656,-0.0065674,-0.053365,-0.012565,0.080555,0.027226,0.18019,0.0031127,0.0031566,-0.041714,-0.13655,-0.0048871,-0.034001,-0.021982,-0.07684
-0.0083615,0.0017903,-0.014021,-0.069467,0.064295,0.12389,-0.020149,0.053535,-0.019474,-0.059046,-0.0069599,-0.050473,-0.016038,0.079023,0.012669,0.12369,-0.0096857,-0.020058,-0.044508,-0.1083,-0.0015144,-0.036426,-0.019185,-0.078501
-0.0098591,-0.0099413,-0.015942,-0.067173,0.07105,0.14044,-0.020793,0.049484,-0.02364,-0.071084,-0.012804,-0.056561,-0.019254,0.078472,0.0016374,0.093277,-0.01504,-0.038943,-0.051396,-0.087225,0.00050147,-0.044927,-0.018145,-0.082801
-0.0089078,-0.012591,-0.018045,-0.067272,0.071776,0.15055,-0.024924,0.044129,-0.02601,-0.084705,-0.021143,-0.066803,-0.027336,0.07889,-0.003224,0.12137,-0.014576,-0.049493,-0.05706,-0.074414,-0.0021783,-0.054219,-0.020297,-0.088426
-0.0067067,-0.010347,-0.020994,-0.069617,0.065358,0.15105,-0.030422,0.041864,-0.02733,-0.10108,-0.027963,-0.075459,-0.042532,0.082124,-0.0046174,0.20388,-0.013005,-0.051227,-0.057894,-0.06824,-0.010161,-0.057991,-0.02406,-0.092402
-0.0048336,-0.010553,-0.025743,-0.072063,0.054873,0.14243,-0.033756,0.043953,-0.028462,-0.1184,-0.031429,-0.079688,-0.061168,0.090185,-0.0080958,0.30067,-0.014024,-0.047412,-0.055155,-0.066344,-0.020436,-0.053816,-0.025555,-0.092304
-0.004198,-0.017218,-0.031671,-0.07224,0.045912,0.12843,-0.033161,0.047906,-0.029587,-0.13222,-0.032598,-0.080301,-0.076,0.1026,-0.017467,0.36125,-0.017595,-0.04308,-0.053924,-0.067198,-0.028289,-0.04506,-0.02171,-0.087686
-0.0045581,-0.02752,-0.035977,-0.069634,0.04253,0.11328,-0.030267,0.049916,-0.030021,-0.13797,-0.033552,-0.079636,-0.082461,0.11555,-0.031534,0.35718,-0.020572,-0.041941,-0.058815,-0.070436,-0.030431,-0.03845,-0.013214,-0.079954
-0.0048229,-0.034138,-0.035419,-0.066136,0.043992,0.098565,-0.028847,0.047696,-0.028849,-0.13379,-0.035237,-0.079066,-0.083247,0.12389,-0.04475,0.29815,-0.019785,-0.044142,-0.070093,-0.076002,-0.026996,-0.039309,-0.0045622,-0.071314
-0.0038811,-0.031473,-0.029091,-0.064504,0.045168,0.082615,-0.031843,0.041197,-0.025916,-0.12177,-0.037075,-0.078376,-0.086741,0.12437,-0.051419,0.22227,-0.014803,-0.046532,-0.083336,-0.082906,-0.021223,-0.048186,-0.00083826,-0.063862
-0.0014495,-0.020678,-0.019706,-0.066045,0.04059,0.062875,-0.039124,0.03111,-0.022296,-0.10699,-0.038226,-0.076978,-0.10016,0.11734,-0.050126,0.16997,-0.0082317,-0.045371,-0.092702,-0.088632,-0.017418,-0.061301,-0.0038627,-0.05921
0.0015527,-0.0093701,-0.011997,-0.069445,0.029055,0.039614,-0.047655,0.017217,-0.019751,-0.094943,-0.03872,-0.075098,-0.12318,0.10564,-0.044635,0.16145,-0.0036157,-0.039599,-0.094959,-0.089852,-0.018674,-0.074117,-0.011002,-0.05828
0.0033749,-0.0062,-0.0094475,-0.071694,0.014943,0.017577,-0.053672,-0.0015087,-0.019516,-0.0891,-0.039134,-0.073377,-0.14754,0.092302,-0.04032,0.19134,-0.0029633,-0.032143,-0.091178,-0.084205,-0.025544,-0.084907,-0.017603,-0.060901
0.0024131,-0.014549,-0.012037,-0.070376,0.0050347,0.0036773,-0.055037,-0.025114,-0.021451,-0.089688,-0.03938,-0.071358,-0.16309,0.079108,-0.039063,0.23967,-0.0058799,-0.028185,-0.085189,-0.072071,-0.03598,-0.09543,-0.020826,-0.065472
-0.0017646,-0.030304,-0.016745,-0.065552,0.0033063,0.0020472,-0.052121,-0.051097,-0.024274,-0.094444,-0.03824,-0.066788,-0.16496,0.066893,-0.03718,0.28656,-0.010663,-0.031698,-0.080576,-0.056992,-0.046269,-0.10833,-0.021508,-0.069324
-0.0080564,-0.045374,-0.020141,-0.059841,0.0079614,0.010415,-0.046938,-0.074781,-0.02665,-0.10054,-0.034468,-0.057087,-0.15609,0.056214,-0.028438,0.31925,-0.016046,-0.042958,-0.078703,-0.044105,-0.052564,-0.12368,-0.022657,-0.069986
-0.014476,-0.054044,-0.020775,-0.056647,0.013068,0.021078,-0.041517,-0.091637,-0.028127,-0.10625,-0.028407,-0.042025,-0.1435,0.047036,-0.0096657,0.33026,-0.022013,-0.058873,-0.07888,-0.037245,-0.052569,-0.1378,-0.026263,-0.066666
-0.01944,-0.057162,-0.01958,-0.057822,0.013316,0.026058,-0.036787,-0.099841,-0.029121,-0.11118,-0.022263,-0.025088,-0.13208,0.037801,0.01609,0.31397,-0.029172,-0.075594,-0.079713,-0.036534,-0.046731,-0.14561,-0.031473,-0.060872
-0.022781,-0.061042,-0.018434,-0.062408,0.0078729,0.022382,-0.032539,-0.10117,-0.030047,-0.11523,-0.018454,-0.011817,-0.12156,0.025641,0.041882,0.26838,-0.037525,-0.091044,-0.080002,-0.038157,-0.038196,-0.14467,-0.035626,-0.055621
-0.025698,-0.072206,-0.018465,-0.067338,0.00030645,0.013265,-0.028135,-0.099672,-0.030439,-0.11752,-0.01745,-0.0061278,-0.10872,0.0084993,0.062652,0.20034,-0.045795,-0.10532,-0.078555,-0.036694,-0.031264,-0.13745,-0.036896,-0.053724
-0.029633,-0.09215,-0.019493,-0.069583,-0.0049278,0.0045447,-0.02322,-0.099072,-0.028891,-0.11653,-0.017278,-0.007591,-0.092138,-0.012539,0.079144,0.12676,-0.051823,-0.119,-0.073791,-0.028529,-0.029045,-0.12975,-0.035905,-0.056302
-0.034946,-0.11596,-0.020742,-0.06818,-0.0060823,-0.00019421,-0.017906,-0.10084,-0.023953,-0.1115,-0.015363,-0.012005,-0.074783,-0.033478,0.09623,0.066996,-0.053627,-0.13125,-0.064351,-0.014065,-0.031789,-0.12621,-0.034885,-0.062428
-0.040425,-0.13549,-0.021822,-0.064712,-0.0047459,-0.0015395,-0.012526,-0.10399,-0.015406,-0.10347,-0.011095,-0.014684,-0.062183,-0.050876,0.11711,0.030405,-0.050329,-0.13964,-0.050676,0.0027287,-0.037039,-0.12685,-0.035467,-0.069943
-0.044056,-0.14448,-0.023029,-0.061969,-0.003423,-0.002057,-0.0074269,-0.10656,-0.0050262,-0.09481,-0.00665,-0.013583,-0.058132,-0.065665,0.13888,0.0095909,-0.042487,-0.14179,-0.036036,0.017034,-0.041477,-0.12741,-0.037354,-0.076744
-0.044451,-0.142,-0.024822,-0.06187,-0.0027529,-0.0027324,-0.0030762,-0.1074,0.0037977,-0.087184,-0.0051646,-0.0097388,-0.061814,-0.083266,0.15378,-0.013626,-0.031883,-0.13739,-0.025369,0.026296,-0.043047,-0.12344,-0.03911,-0.081589
-0.041824,-0.1323,-0.027069,-0.064214,-0.0011095,-0.0017686,-0.00026246,-0.10695,0.0076223,-0.080225,-0.007824,-0.0051491,-0.068499,-0.1089,0.15536,-0.052933,-0.020979,-0.12866,-0.022122,0.031784,-0.041809,-0.11432,-0.039993,-0.083939
-0.037775,-0.12178,-0.028804,-0.067029,0.0031857,0.0032211,0.00012312,-0.10639,0.0049319,-0.072364,-0.012533,-0.00044247,-0.072709,-0.14169,0.14399,-0.10474,-0.012191,-0.11907,-0.025399,0.037805,-0.039135,-0.10369,-0.040716,-0.083049
-0.034138,-0.11543,-0.02873,-0.068013,0.00937,0.012034,-0.0021547,-0.10617,-0.0027202,-0.063494,-0.015449,0.0054884,-0.071036,-0.17314,0.12688,-0.14841,-0.0070499,-0.1113,-0.030062,0.049199,-0.036258,-0.096116,-0.04222,-0.077128
-0.03183,-0.11501,-0.026201,-0.065863,0.014035,0.020958,-0.0060034,-0.10529,-0.011391,-0.056811,-0.01409,0.013892,-0.062858,-0.19203,0.11245,-0.16012,-0.0055445,-0.10627,-0.030231,0.068557,-0.033498,-0.093131,-0.04375,-0.063432
-0.030592,-0.11934,-0.021997,-0.060649,0.01358,0.025014,-0.0092967,-0.10216,-0.017063,-0.057371,-0.0093483,0.024425,-0.049411,-0.19216,0.10402,-0.13023,-0.0061754,-0.10373,-0.023592,0.094514,-0.030627,-0.092427,-0.042522,-0.039553
-0.029677,-0.12568,-0.018247,-0.053346,0.007211,0.021304,-0.010263,-0.09624,-0.01807,-0.067782,-0.0047434,0.034912,-0.032723,-0.17642,0.098325,-0.071565,-0.0069541,-0.10342,-0.012966,0.12191,-0.027653,-0.090659,-0.03583,-0.0052769
-0.028788,-0.131,-0.017311,-0.045202,-0.0021717,0.010693,-0.0089054,-0.088936,-0.015835,-0.084489,-0.0036155,0.04261,-0.015185,-0.15331,0.089582,-0.012441,-0.006829,-0.10549,-0.0036993,0.14379,-0.025021,-0.086835,-0.023899,0.03618
-0.028413,-0.13276,-0.020134,-0.037379,-0.0099995,-0.003151,-0.0070276,-0.082712,-0.013342,-0.098428,-0.0066407,0.045743,0.00065641,-0.12891,0.075382,0.020457,-0.0064137,-0.10968,0.00091509,0.1544,-0.02305,-0.08287,-0.010708,0.078535
-0.029328,-0.12959,-0.025245,-0.030758,-0.013319,-0.016067,-0.0065607,-0.079012,-0.012667,-0.1005,-0.011578,0.044244,0.012641,-0.10123,0.058949,0.017423,-0.0072367,-0.11419,0.0021918,0.15175,-0.021335,-0.080901,-0.0015773,0.11446
-0.03172,-0.12207,-0.029376,-0.025627,-0.01268,-0.025218,-0.0076081,-0.076895,-0.013668,-0.088118,-0.015224,0.03962,0.019627,-0.062288,0.046149,-0.010935,-0.0099918,-0.11577,0.0044028,0.13822,-0.018966,-0.080365,0.00076018,0.1383
-0.034699,-0.11279,-0.029569,-0.021374,-0.011227,-0.029653,-0.0081842,-0.073687,-0.014822,-0.067515,-0.015837,0.034337,0.021508,-0.0065487,0.040223,-0.043914,-0.013353,-0.11136,0.010526,0.11896,-0.015475,-0.078118,-0.0017013,0.1482
-0.036614,-0.10516,-0.025343,-0.016703,-0.011888,-0.030081,-0.0061708,-0.06715,-0.015133,-0.049697,-0.014161,0.030953,0.018561,0.061124,0.038943,-0.066697,-0.014641,-0.10022,0.019328,0.098895,-0.011625,-0.071752,-0.0038084,0.14656
-0.03595,-0.10105,-0.019149,-0.010624,-0.014972,-0.028327,-0.0017669,-0.057267,-0.015039,-0.04274,-0.012479,0.031059,0.010982,0.12494,0.036328,-0.080696,-0.012004,-0.084781,0.02641,0.080437,-0.0091331,-0.062879,-0.0012842,0.13878
-0.032222,-0.099221,-0.014562,-0.003597,-0.018015,-0.026438,0.0020629,-0.046094,-0.015433,-0.046329,-0.012647,0.034409,-0.00063833,0.16616,0.026984,-0.10142,-0.0062131,-0.069323,0.028145,0.063333,-0.0094256,-0.056872,0.006109,0.13057
-0.026281,-0.096218,-0.013548,0.0022847,-0.017843,-0.02533,0.0019153,-0.035961,-0.016002,-0.052616,-0.014666,0.038976,-0.014433,0.17393,0.0092494,-0.14593,-0.00034641,-0.05745,0.024846,0.046646,-0.012393,-0.058794,0.014762,0.12513
-0.019889,-0.089313,-0.01508,0.0046949,-0.013144,-0.023778,-0.0029044,-0.027736,-0.015007,-0.052549,-0.016754,0.042259,-0.027315,0.15128,-0.014913,-0.21905,0.0025237,-0.050339,0.020361,0.031117,-0.016195,-0.068821,0.020293,0.12164
-0.014849,-0.07928,-0.016291,0.0032567,-0.0056003,-0.01901,-0.0093952,-0.020559,-0.011107,-0.042611,-0.016701,0.043092,-0.036518,0.11215,-0.04218,-0.30764,0.0015801,-0.046986,0.018657,0.019896,-0.018331,-0.081181,0.020717,0.11609
-0.012216,-0.070417,-0.015204,0.00068349,0.0011623,-0.0091949,-0.013157,-0.01295,-0.0054324,-0.026944,-0.013438,0.042529,-0.041298,0.072575,-0.069647,-0.3862,-0.0016182,-0.045949,0.020648,0.01692,-0.017224,-0.087747,0.017276,0.10446
-0.011996,-0.067632,-0.012598,0.00152,0.0039163,0.0038532,-0.012026,-0.0039882,-0.0013891,-0.013682,-0.0076992,0.042959,-0.042834,0.042518,-0.094813,-0.42928,-0.0052062,-0.046881,0.024026,0.024105,-0.013228,-0.083559,0.012844,0.086443
-0.013413,-0.072961,-0.011301,0.0089828,0.0017203,0.014375,-0.00779,0.0063879,-0.0017408,-0.0087562,-0.0014323,0.046044,-0.041986,0.023981,-0.11483,-0.42265,-0.0091704,-0.050534,0.02594,0.039523,-0.0084192,-0.070089,0.0098212,0.066707
-0.015467,-0.084286,-0.01343,0.022171,-0.003891,0.015845,-0.0044757,0.017674,-0.0055005,-0.011958,0.003482,0.051119,-0.037072,0.015103,-0.12689,-0.36709,-0.015327,-0.057423,0.025827,0.057978,-0.0053207,-0.053922,0.0092512,0.052444
-0.017366,-0.096912,-0.017983,0.035986,-0.010327,0.0055949,-0.0048481,0.028837,-0.007957,-0.017735,0.0062019,0.055357,-0.024279,0.015604,-0.13001,-0.27455,-0.024972,-0.066555,0.025923,0.073638,-0.0053254,-0.042062,0.011215,0.048447
-0.018618,-0.1063,-0.021016,0.044179,-0.015773,-0.012916,-0.0082983,0.037958,-0.0044847,-0.019445,0.0069903,0.055643,-0.0008532,0.028536,-0.12649,-0.16067,-0.036472,-0.075443,0.029339,0.082893,-0.0077566,-0.037432,0.015348,0.053532
-0.018922,-0.10982,-0.018482,0.043484,-0.020115,-0.03248,-0.011845,0.042409,0.005039,-0.013528,0.0066079,0.050827,0.031822,0.057066,-0.12106,-0.038692,-0.045404,-0.081399,0.037773,0.085631,-0.010153,-0.037649,0.020741,0.061342
-0.018116,-0.10689,-0.0095569,0.035818,-0.024482,-0.047487,-0.013063,0.040294,0.015519,-0.00077177,0.0057698,0.042761,0.068516,0.099425,-0.11764,0.082578,-0.047627,-0.083019,0.050768,0.084349,-0.0097279,-0.037566,0.025709,0.065139
-0.016329,-0.098595,0.0022173,0.026862,-0.029899,-0.057789,-0.012145,0.032396,0.020838,0.015591,0.0051264,0.035405,0.10385,0.14655,-0.11632,0.19748,-0.042822,-0.080785,0.066611,0.082027,-0.005248,-0.033376,0.028313,0.062744
-0.014101,-0.087383,0.010998,0.02208,-0.036102,-0.067679,-0.011401,0.022641,0.019475,0.032987,0.0055021,0.032618,0.13595,0.1847,-0.11314,0.30117,-0.035297,-0.076546,0.083424,0.080346,0.0018457,-0.025247,0.027561,0.057556
-0.012194,-0.076625,0.012455,0.023136,-0.041323,-0.080868,-0.012919,0.01586,0.016325,0.051361,0.007762,0.036079,0.16628,0.20139,-0.10316,0.38868,-0.030976,-0.072508,0.099349,0.079298,0.0079713,-0.016765,0.024223,0.054898
-0.011089,-0.069094,0.0065757,0.027294,-0.043268,-0.095999,-0.016661,0.014185,0.018681,0.072572,0.012109,0.04463,0.1958,0.19089,-0.084691,0.456,-0.03283,-0.070389,0.11219,0.078134,0.0095498,-0.011912,0.02029,0.056916
-0.010586,-0.064988,-0.0024572,0.030083,-0.040741,-0.10688,-0.020544,0.015171,0.029701,0.09792,0.01741,0.05533,0.22131,0.15593,-0.061266,0.50243,-0.038503,-0.070962,0.11973,0.07671,0.0055301,-0.011932,0.017459,0.06039
-0.0099737,-0.061416,-0.0090702,0.029012,-0.034839,-0.1074,-0.022179,0.013703,0.045187,0.12565,0.021414,0.065321,0.23605,0.10526,-0.03999,0.53209,-0.04226,-0.073838,0.12098,0.076153,-0.0014665,-0.014338,0.015954,0.0592
-0.0087394,-0.054667,-0.0097363,0.025437,-0.028694,-0.096995,-0.020606,0.0064136,0.056657,0.15038,0.022032,0.073153,0.23454,0.048959,-0.027425,0.55321,-0.039767,-0.077473,0.1174,0.078382,-0.0064485,-0.014583,0.014671,0.049264
-0.0072287,-0.043949,-0.004792,0.023272,-0.025611,-0.081769,-0.016718,-0.0051815,0.058107,0.1654,0.018848,0.078816,0.21743,-0.0051477,-0.025904,0.57494,-0.031809,-0.079728,0.11248,0.084859,-0.0052008,-0.0089797,0.012336,0.031887
-0.0065754,-0.033182,0.002309,0.025691,-0.026761,-0.070507,-0.012318,-0.015752,0.050607,0.16662,0.013656,0.082822,0.19164,-0.052373,-0.03258,0.60333,-0.023779,-0.079141,0.10964,0.095435,0.0028308,0.003295,0.0085169,0.013106
-0.0078048,-0.028459,0.0075355,0.032509,-0.030278,-0.068716,-0.0087873,-0.020578,0.040927,0.15565,0.0094964,0.085341,0.1657,-0.089561,-0.041459,0.63832,-0.021281,-0.07635,0.11007,0.10807,0.01411,0.020388,0.0037148,-0.00013306
-0.010783,-0.03268,0.0088589,0.040231,-0.032694,-0.075449,-0.0063891,-0.019358,0.035686,0.13935,0.0088301,0.086089,0.14398,-0.11328,-0.046844,0.67334,-0.025431,-0.074401,0.11223,0.11962,0.023564,0.039656,-0.0011889,-0.0038877
-0.013917,-0.041933,0.0072857,0.044621,-0.031702,-0.084855,-0.0045025,-0.01596,0.036219,0.12538,0.01208,0.084765,0.12472,-0.11999,-0.046093,0.69758,-0.031787,-0.077072,0.11349,0.12732,0.028326,0.059512,-0.0053716,0.001271
-0.014934,-0.04729,0.0058039,0.043724,-0.027927,-0.090596,-0.002392,-0.014452,0.038295,0.11677,0.017427,0.081318,0.10272,-0.10863,-0.040412,0.70042,-0.03384,-0.085814,0.11227,0.13006,0.029738,0.079711,-0.0080825,0.011441
-0.012228,-0.041088,0.0070251,0.039064,-0.024146,-0.089483,0.00017052,-0.015244,0.036325,0.10965,0.021854,0.075693,0.073996,-0.08332,-0.033675,0.67697,-0.028113,-0.097504,0.10897,0.12889,0.031873,0.10004,-0.0086277,0.021683
-0.0057773,-0.022533,0.011183,0.034282,-0.022685,-0.082166,0.0028557,-0.01506,0.028051,0.096734,0.022739,0.067518,0.038511,-0.053394,-0.030102,0.63243,-0.016533,-0.10512,0.10497,0.12639,0.03766,0.11885,-0.0067542,0.027785
0.0029803,0.0021375,0.015985,0.032488,-0.023399,-0.0714,0.0052403,-0.010767,0.015857,0.074218,0.01915,0.056386,-0.00038059,-0.029522,-0.031905,0.58257,-0.004085,-0.10137,0.10105,0.12519,0.045843,0.13293,-0.0031903,0.027075
0.012144,0.025031,0.018522,0.034453,-0.024077,-0.059927,0.0073364,-0.0033499,0.0043116,0.046573,0.012253,0.042781,-0.038067,-0.018123,-0.037853,0.54755,0.0060521,-0.082862,0.096641,0.12659,0.051584,0.13919,0.00039398,0.018907
0.020465,0.042704,0.017761,0.03888,-0.022744,-0.049433,0.0097047,0.0019381,-0.0032998,0.024453,0.0046426,0.028766,-0.070197,-0.018257,-0.043557,0.54042,0.0154,-0.051352,0.090626,0.13012,0.050448,0.13678,0.0023388,0.0052649
0.027805,0.057774,0.015509,0.04419,-0.019568,-0.040548,0.01303,-0.0002374,-0.006457,0.016723,-0.0010569,0.017453,-0.092961,-0.023619,-0.043673,0.55664,0.028363,-0.01129,0.082646,0.13438,0.042458,0.12795,0.0022142,-0.0090198
0.034697,0.075063,0.01484,0.05004,-0.016586,-0.033151,0.017492,-0.01036,-0.0063706,0.022963,-0.0035697,0.011318,-0.10326,-0.028209,-0.035224,0.57312,0.047297,0.034254,0.073639,0.13857,0.03249,0.11679,0.0011731,-0.017473
0.041351,0.096131,0.01724,0.057176,-0.01565,-0.026594,0.022462,-0.022854,-0.0042771,0.033111,-0.0034452,0.01061,-0.099686,-0.030948,-0.020045,0.5608,0.069058,0.085385,0.065161,0.14333,0.02631,0.10671,0.00096555,-0.014835
0.046908,0.11709,0.021032,0.065862,-0.016693,-0.020063,0.026783,-0.029901,-0.00096657,0.035111,-0.0023199,0.013254,-0.083752,-0.035277,-0.0042717,0.50459,0.086448,0.1431,0.058163,0.15001,0.025515,0.098413,0.002389,-0.00024843
0.049594,0.13129,0.022743,0.074529,-0.017937,-0.013283,0.029457,-0.027204,0.0024657,0.024356,-0.0015555,0.016457,-0.059842,-0.044138,0.0055419,0.41697,0.093522,0.20493,0.052322,0.15905,0.025966,0.089769,0.0045688,0.021504
0.047873,0.13411,0.020402,0.080198,-0.017693,-0.0071708,0.030246,-0.01692,0.0042234,0.0068747,-0.0013573,0.01865,-0.033276,-0.055028,0.0073135,0.334,0.090098,0.26276,0.046478,0.1687,0.021512,0.077844,0.005764,0.042098
0.041801,0.12595,0.015808,0.080565,-0.015897,-0.0037238,0.029816,-0.0055216,0.002832,-0.0063712,-0.0010297,0.020073,-0.0076954,-0.059988,0.0054835,0.29491,0.081424,0.3054,0.039831,0.17555,0.010074,0.061664,0.0049984,0.054224
0.033385,0.11138,0.013465,0.075977,-0.013943,-0.0049081,0.029338,0.0012442,-0.0012613,-0.0088624,3.1549e-005,0.021546,0.016264,-0.051049,0.0080039,0.31956,0.073331,0.32425,0.032954,0.17656,-0.0033502,0.043877,0.0030213,0.055675
0.025376,0.09581,0.016775,0.069345,-0.013092,-0.011197,0.029769,0.0017719,-0.0053976,-0.0032447,0.0016678,0.022729,0.040083,-0.026629,0.02008,0.4,0.067307,0.3177,0.027766,0.17086,-0.0098792,0.029843,0.0016797,0.050091
0.01925,0.082473,0.024719,0.06379,-0.01307,-0.020819,0.03116,-0.0022677,-0.0064902,0.0023782,0.0032558,0.021729,0.065198,0.0066674,0.039605,0.51081,0.059937,0.29085,0.026298,0.15995,-0.0039226,0.02435,0.002216,0.043774
0.014178,0.071517,0.032065,0.059942,-0.012194,-0.030313,0.032398,-0.0095062,-0.003481,0.0025401,0.0045716,0.016645,0.091342,0.038405,0.058324,0.62713,0.047028,0.25125,0.02903,0.14621,0.011648,0.027981,0.0040114,0.040901
0.0081304,0.061268,0.033234,0.055349,-0.0089329,-0.036031,0.031647,-0.021025,0.0017998,-0.00088235,0.0062208,0.0077391,0.11631,0.060903,0.068104,0.73461,0.028456,0.20495,0.034158,0.13124,0.026956,0.035916,0.0049593,0.04066
0.00035786,0.050291,0.026725,0.046742,-0.0035487,-0.035701,0.027466,-0.038504,0.0061911,-0.0014445,0.0091105,-0.0018463,0.13672,0.072358,0.067225,0.82463,0.009189,0.15586,0.038667,0.11542,0.03232,0.040565,0.0032558,0.038321
-0.0071146,0.038789,0.016395,0.033331,0.0016265,-0.029243,0.020022,-0.060103,0.0076818,0.0048,0.013469,-0.0076961,0.14873,0.074361,0.061437,0.88424,-0.0043931,0.10814,0.040688,0.098997,0.025407,0.036592,-0.00088143,0.029227
-0.010753,0.028482,0.0085167,0.018248,0.0036017,-0.0186,0.011529,-0.078599,0.0065317,0.014978,0.018408,-0.0069174,0.14874,0.067111,0.059073,0.89476,-0.0094895,0.06779,0.041255,0.083109,0.012557,0.024685,-0.0050905,0.012562
-0.0087952,0.021139,0.0070507,0.006747,0.00083719,-0.0067892,0.0053157,-0.084687,0.0042483,0.02185,0.022483,7.0719e-006,0.13444,0.047802,0.064584,0.84367,-0.0087972,0.040589,0.043689,0.06967,0.0034531,0.011038,-0.0065933,-0.0078256
-0.0035593,0.016933,0.011026,0.0025538,-0.005521,0.0034136,0.0038712,-0.073531,0.001804,0.020471,0.024723,0.0095854,0.10656,0.014264,0.076028,0.73846,-0.0079349,0.027794,0.050718,0.060131,0.0037437,0.0028124,-0.0044506,-0.025842
-0.00024843,0.014007,0.015971,0.0053333,-0.012263,0.01062,0.0071412,-0.049072,-0.00095362,0.012679,0.025191,0.017417,0.070144,-0.029638,0.088147,0.60664,-0.010916,0.023999,0.061605,0.054463,0.011562,0.0031333,-0.00047381,-0.036735
-0.0027988,0.0098595,0.017867,0.011254,-0.0162,0.015258,0.012438,-0.021949,-0.0042751,0.0053953,0.024663,0.020461,0.033531,-0.072778,0.09767,0.47841,-0.017545,0.020224,0.071983,0.051395,0.020165,0.0095996,0.0020692,-0.039374
-0.010292,0.0035269,0.016168,0.015956,-0.016177,0.018951,0.016254,-0.0022348,-0.0073318,0.0045475,0.023853,0.018205,0.0046299,-0.10226,0.10581,0.36571,-0.024468,0.010419,0.076957,0.049614,0.0238,0.017181,0.00099558,-0.036119
-0.017345,-0.003363,0.01354,0.017356,-0.013485,0.023104,0.016752,0.0072014,-0.0085242,0.010206,0.022953,0.0125,-0.013351,-0.11188,0.11603,0.25645,-0.028353,-0.0041286,0.075129,0.048583,0.021739,0.022629,-0.0030596,-0.03101
-0.018472,-0.0078177,0.013039,0.016158,-0.010437,0.027624,0.015006,0.011293,-0.0071748,0.017018,0.021818,0.006502,-0.023278,-0.1066,0.12968,0.1296,-0.02831,-0.016553,0.070013,0.048093,0.0177,0.026433,-0.0071615,-0.02765
-0.012739,-0.0080646,0.015458,0.01412,-0.0083864,0.030771,0.01395,0.017217,-0.0047553,0.019125,0.020454,0.0032161,-0.030866,-0.098674,0.14381,-0.023038,-0.025922,-0.020879,0.067369,0.047159,0.015967,0.0309,-0.0084027,-0.027749
-0.0045464,-0.0051395,0.019049,0.011981,-0.0069411,0.030487,0.015851,0.027893,-0.0040028,0.015073,0.019271,0.0040295,-0.039049,-0.098274,0.15318,-0.18841,-0.023571,-0.017308,0.070488,0.043707,0.017893,0.036633,-0.0060696,-0.030635
0.00021525,-0.0018541,0.021401,0.0089476,-0.0049365,0.026364,0.020392,0.040293,-0.00639,0.0087544,0.018884,0.0078506,-0.044725,-0.10598,0.15429,-0.34472,-0.022735,-0.011505,0.07738,0.035796,0.021391,0.041031,-0.0018844,-0.033786
-0.00072824,5.2737e-005,0.02148,0.0039934,-0.0020554,0.020802,0.024983,0.049595,-0.010309,0.0061185,0.019687,0.011586,-0.041188,-0.11326,0.14783,-0.48179,-0.023388,-0.0087597,0.082364,0.023465,0.023144,0.040358,0.0016858,-0.034378
-0.0042018,0.0019091,0.02008,-0.0024509,0.00067864,0.018248,0.026974,0.054711,-0.011978,0.010742,0.021545,0.012115,-0.024719,-0.11049,0.13754,-0.60898,-0.024391,-0.0088387,0.080732,0.0094115,0.02129,0.033434,0.0033809,-0.031272
-0.0045702,0.0071403,0.018687,-0.008075,0.0021425,0.022785,0.025807,0.059648,-0.0086184,0.0217,0.0238,0.0086746,0.00024895,-0.09583,0.12688,-0.74288,-0.024337,-0.0066545,0.072469,-0.0023684,0.016551,0.023466,0.0036464,-0.026163
0.0011559,0.017863,0.01813,-0.0099956,0.0028231,0.035674,0.023276,0.069448,-0.0011701,0.034857,0.025569,0.0037848,0.022366,-0.077436,0.11665,-0.88709,-0.022424,0.0018017,0.061802,-0.0089951,0.011442,0.016229,0.0035205,-0.022692
0.010531,0.031931,0.018214,-0.0067385,0.0050263,0.05467,0.021866,0.084884,0.0060111,0.045977,0.026208,0.0016125,0.030723,-0.067297,0.10524,-1.0245,-0.019096,0.014073,0.053094,-0.010217,0.0085509,0.016015,0.0033137,-0.023732
0.017439,0.04322,0.018322,0.00068536,0.010951,0.075687,0.022792,0.1013,0.0084566,0.053105,0.025732,0.0047283,0.022688,-0.071499,0.090845,-1.1301,-0.016021,0.021949,0.046918,-0.0079239,0.0091169,0.022666,0.0025084,-0.028818
0.016746,0.045387,0.018112,0.0094131,0.02018,0.095521,0.025468,0.11283,0.0051574,0.056745,0.024852,0.011814,0.0058495,-0.084936,0.073164,-1.1932,-0.015091,0.018173,0.040087,-0.0044124,0.012564,0.032022,0.00085066,-0.034018
0.0080139,0.036453,0.017631,0.016537,0.029051,0.11338,0.028579,0.11765,-0.00066114,0.058214,0.024417,0.018345,-0.007534,-0.094779,0.053481,-1.2266,-0.016838,0.003298,0.0298,-0.0011099,0.017016,0.039274,-0.0007345,-0.034722
-0.0043622,0.020735,0.016982,0.020722,0.032896,0.12996,0.03145,0.11911,-0.0042795,0.05777,0.024504,0.019856,-0.0090602,-0.090046,0.033451,-1.2547,-0.019556,-0.013648,0.018162,0.0013031,0.020439,0.042508,-0.00058432,-0.029242
-0.014225,0.0065346,0.016134,0.022534,0.029577,0.1451,0.034367,0.12138,-0.0034884,0.054009,0.023955,0.015155,0.00099474,-0.069731,0.014158,-1.2894,-0.020168,-0.021693,0.012575,0.0020314,0.021837,0.043743,0.0022225,-0.020119
-0.01738,0.0010557,0.015116,0.023394,0.021354,0.15641,0.037753,0.12424,-0.00055758,0.044888,0.021088,0.0069144,0.015774,-0.043095,-0.0037874,-1.3166,-0.016499,-0.016288,0.020895,-8.7989e-005,0.021796,0.046842,0.0068639,-0.011815
-0.013535,0.0060198,0.014294,0.024104,0.013377,0.16055,0.041271,0.12257,-0.00055168,0.029571,0.015373,-0.00065342,0.028267,-0.022013,-0.019629,-1.3055,-0.009121,-0.002517,0.044843,-0.0057395,0.021963,0.054048,0.011386,-0.0066121
-0.005687,0.016962,0.014273,0.024117,0.0098607,0.15627,0.043865,0.11155,-0.0072971,0.0097633,0.0087142,-0.0049057,0.036401,-0.011598,-0.032328,-1.2336,-0.0010485,0.0094617,0.077071,-0.014091,0.023722,0.06383,0.014475,-0.0022535
0.0021155,0.026691,0.015383,0.022108,0.010971,0.14606,0.044551,0.092631,-0.020102,-0.010451,0.0048885,-0.0061574,0.043059,-0.0066529,-0.041248,-1.1072,0.0046156,0.012785,0.10466,-0.022852,0.026982,0.071693,0.016742,0.0064801
0.0071034,0.030529,0.017227,0.017363,0.012827,0.13447,0.043008,0.074007,-0.033705,-0.026252,0.0070709,-0.0066015,0.051942,0.0032944,-0.046999,-0.96123,0.0070442,0.0090873,0.11684,-0.029663,0.029995,0.073351,0.020249,0.023418
0.0089863,0.029661,0.018793,0.010856,0.010524,0.12405,0.03935,0.064161,-0.041518,-0.034275,0.015201,-0.0081448,0.063378,0.024651,-0.051555,-0.83835,0.007927,0.0065252,0.11131,-0.033682,0.030394,0.067914,0.026574,0.047413
0.0095249,0.030095,0.019166,0.0050866,0.0017506,0.1127,0.033552,0.063862,-0.039857,-0.034104,0.025444,-0.01111,0.073482,0.053923,-0.057411,-0.76424,0.0094265,0.012687,0.094758,-0.035932,0.026717,0.05862,0.035004,0.072452
0.010855,0.037795,0.018272,0.0026789,-0.011669,0.095563,0.025542,0.063964,-0.030216,-0.028213,0.032457,-0.014558,0.076888,0.080265,-0.066327,-0.73631,0.011887,0.028448,0.077502,-0.038104,0.019361,0.050447,0.042388,0.09139
0.013699,0.053489,0.017009,0.0047265,-0.025182,0.070275,0.016147,0.051771,-0.018082,-0.02045,0.032819,-0.017448,0.070538,0.094334,-0.078486,-0.73161,0.01358,0.047531,0.066528,-0.040914,0.010331,0.046282,0.044865,0.10048
0.01679,0.07119,0.016583,0.010088,-0.034511,0.041059,0.007881,0.021235,-0.0092465,-0.014058,0.026976,-0.019366,0.055811,0.096073,-0.092471,-0.72548,0.012744,0.061531,0.061954,-0.043481,0.0019817,0.04454,0.040318,0.10159
0.018061,0.08191,0.017576,0.016166,-0.037973,0.017351,0.0042189,-0.021273,-0.0063033,-0.010424,0.018354,-0.020338,0.037901,0.094923,-0.10598,-0.70627,0.009841,0.065878,0.058834,-0.044263,-0.0044,0.040221,0.029926,0.10102
0.016686,0.079979,0.019535,0.020557,-0.036742,0.007362,0.0073338,-0.060427,-0.0077453,-0.0091761,0.010698,-0.020231,0.023213,0.10221,-0.1169,-0.6772,0.0076186,0.062117,0.052104,-0.042743,-0.009236,0.028834,0.017823,0.10621
0.01417,0.067094,0.021468,0.022316,-0.033374,0.011779,0.016052,-0.082016,-0.010013,-0.0092364,0.0059741,-0.018512,0.016367,0.12194,-0.12436,-0.64699,0.0086869,0.055412,0.040468,-0.040436,-0.014044,0.010333,0.0090698,0.12213
0.013272,0.050805,0.022768,0.02191,-0.03003,0.023138,0.026116,-0.081903,-0.010582,-0.0098273,0.004278,-0.014632,0.018326,0.14754,-0.1293,-0.61876,0.012825,0.050021,0.026577,-0.040374,-0.019906,-0.010006,0.0070984,0.14917
0.01543,0.038587,0.023652,0.020096,-0.027616,0.031731,0.033074,-0.067464,-0.0095472,-0.01069,0.0051853,-0.0086134,0.02654,0.1671,-0.1341,-0.58569,0.016673,0.046439,0.014125,-0.045379,-0.026091,-0.024734,0.012019,0.18262
0.018917,0.032305,0.024615,0.016887,-0.026018,0.03312,0.035608,-0.051279,-0.0086667,-0.01162,0.0088029,-0.0013009,0.03705,0.1726,-0.14103,-0.53559,0.016322,0.04183,0.0048029,-0.056253,-0.030024,-0.029264,0.020681,0.21415
0.019637,0.027583,0.025446,0.011655,-0.024778,0.030895,0.036395,-0.042532,-0.0090977,-0.012029,0.015488,0.0059334,0.047127,0.16547,-0.15015,-0.45947,0.010596,0.03266,-0.0024454,-0.071032,-0.028966,-0.025049,0.028425,0.23515
0.014336,0.018464,0.02493,0.0043318,-0.023554,0.032516,0.039516,-0.042495,-0.010081,-0.011065,0.024775,0.011799,0.056353,0.15392,-0.15812,-0.35776,0.0021076,0.017361,-0.0098026,-0.085788,-0.02238,-0.018395,0.031576,0.24075
0.0037705,0.003326,0.021812,-0.0035558,-0.022235,0.042206,0.046587,-0.046458,-0.0097441,-0.0081543,0.034869,0.015606,0.064978,0.1446,-0.15914,-0.24077,-0.0048456,-0.0023829,-0.018578,-0.096528,-0.013077,-0.015745,0.029347,0.23252
-0.006938,-0.012995,0.016264,-0.0092673,-0.020963,0.057298,0.055039,-0.04936,-0.0070983,-0.0033745,0.043349,0.017406,0.070846,0.13607,-0.14822,-0.12474,-0.0076732,-0.021871,-0.028696,-0.10114,-0.0058575,-0.019062,0.024116,0.21761
-0.01148,-0.022624,0.010361,-0.010705,-0.020154,0.071038,0.060199,-0.050194,-0.0031724,0.0026977,0.048463,0.017749,0.068082,0.11985,-0.12491,-0.026755,-0.0072301,-0.034875,-0.039722,-0.10027,-0.0042317,-0.02487,0.019889,0.20444
-0.0069032,-0.020695,0.0068113,-0.0082852,-0.020356,0.07889,0.059338,-0.052082,-0.00017435,0.0094142,0.049785,0.017252,0.049788,0.088371,-0.094514,0.039173,-0.0065414,-0.036121,-0.05185,-0.096696,-0.0076679,-0.027506,0.019797,0.19735
0.0039532,-0.009035,0.0068578,-0.0050535,-0.021844,0.082324,0.054067,-0.058711,0.00047072,0.016212,0.047751,0.016311,0.013409,0.043092,-0.065581,0.064639,-0.007845,-0.024107,-0.065466,-0.093534,-0.011748,-0.023726,0.024124,0.19423
0.014168,0.0053373,0.0092766,-0.0045838,-0.024257,0.086672,0.048951,-0.070468,-0.00076642,0.022247,0.042681,0.015191,-0.035718,-0.0044418,-0.045007,0.048527,-0.010631,-0.0027158,-0.079658,-0.09248,-0.011479,-0.014875,0.030143,0.18869
0.017474,0.015365,0.011483,-0.0081144,-0.026771,0.095214,0.047619,-0.083411,-0.0023621,0.025882,0.034348,0.014443,-0.086411,-0.039856,-0.034364,-0.0020064,-0.012277,0.020032,-0.091479,-0.09302,-0.0052849,-0.0051603,0.033993,0.17515
0.012477,0.018394,0.011769,-0.013226,-0.028861,0.1051,0.049875,-0.09181,-0.0036532,0.024715,0.022564,0.015189,-0.12849,-0.056001,-0.030192,-0.071943,-0.010475,0.036134,-0.097294,-0.092986,0.0036212,0.0020271,0.033371,0.15288
0.0031989,0.0166,0.010529,-0.015308,-0.030959,0.10898,0.052242,-0.092339,-0.0057671,0.01658,0.0081706,0.018782,-0.15913,-0.057805,-0.027752,-0.14121,-0.0051523,0.042323,-0.095477,-0.089937,0.0097996,0.0064133,0.029075,0.12607
-0.004365,0.013833,0.0093637,-0.010882,-0.034167,0.10103,0.051222,-0.086877,-0.010383,0.0011903,-0.0065938,0.025718,-0.18326,-0.058206,-0.02486,-0.19044,0.0017826,0.041892,-0.088012,-0.082542,0.01007,0.010069,0.024162,0.10033
-0.006793,0.012182,0.0090701,-0.0003113,-0.038971,0.08213,0.046221,-0.081771,-0.017315,-0.01856,-0.018885,0.034494,-0.20752,-0.068565,-0.022548,-0.20885,0.0084143,0.041969,-0.079146,-0.071297,0.0061483,0.014846,0.021304,0.078812
-0.0052748,0.011264,0.0087371,0.012183,-0.044007,0.05974,0.039677,-0.083827,-0.023336,-0.036764,-0.026725,0.041532,-0.23308,-0.09119,-0.022503,-0.20118,0.01454,0.048065,-0.071805,-0.058325,0.0031414,0.020703,0.020483,0.060894
-0.0037042,0.01021,0.0069224,0.021244,-0.046219,0.042611,0.034628,-0.09557,-0.023843,-0.04664,-0.030049,0.04284,-0.25367,-0.1195,-0.024349,-0.1885,0.021481,0.060046,-0.064763,-0.046408,0.0051317,0.026264,0.019068,0.043907
-0.0047666,0.0097253,0.0036406,0.023858,-0.042705,0.034617,0.032124,-0.11314,-0.016434,-0.043905,-0.030525,0.036757,-0.26077,-0.14491,-0.025848,-0.19918,0.03021,0.072593,-0.053361,-0.037656,0.011587,0.030555,0.01431,0.02579
-0.007578,0.011826,0.00090257,0.021074,-0.03296,0.032653,0.030677,-0.12862,-0.0034588,-0.029482,-0.030285,0.025833,-0.25126,-0.16431,-0.025886,-0.25244,0.039648,0.079591,-0.03363,-0.032489,0.017597,0.033784,0.0061757,0.0063617
-0.0089163,0.017534,0.0010152,0.016856,-0.019645,0.029966,0.027869,-0.1355,0.0089902,-0.0095392,-0.030545,0.016013,-0.23047,-0.18163,-0.026878,-0.34452,0.046863,0.078703,-0.0066406,-0.02959,0.017662,0.036342,-0.0020196,-0.013375
-0.0067491,0.025096,0.0042491,0.015065,-0.0070849,0.021909,0.022428,-0.13357,0.015301,0.007759,-0.031049,0.01303,-0.20741,-0.20262,-0.033444,-0.4485,0.049162,0.072499,0.020704,-0.027052,0.0098265,0.037295,-0.0058535,-0.032549
-0.0026179,0.03088,0.0082872,0.016905,0.0013908,0.0094378,0.0151,-0.12945,0.014588,0.017107,-0.030524,0.018332,-0.18587,-0.22735,-0.047852,-0.5306,0.046254,0.065596,0.039421,-0.02402,-0.003075,0.034286,-0.0031253,-0.050882
-0.00046568,0.032391,0.010151,0.020604,0.0051566,-0.0021695,0.0079916,-0.13206,0.011386,0.019254,-0.027602,0.027789,-0.15909,-0.2472,-0.066397,-0.57184,0.040504,0.060594,0.043988,-0.02158,-0.01568,0.025341,0.0044395,-0.068271
-0.0028543,0.030545,0.0087967,0.023359,0.0058099,-0.0078991,0.0032416,-0.14587,0.011978,0.020008,-0.021483,0.034661,-0.11318,-0.24935,-0.080697,-0.5787,0.034969,0.056326,0.03532,-0.021927,-0.023662,0.011093,0.012384,-0.08471
-0.0081409,0.028792,0.005881,0.023804,0.0051692,-0.0069732,0.001919,-0.16661,0.019211,0.025421,-0.012153,0.034901,-0.037406,-0.2257,-0.083727,-0.57466,0.030915,0.049609,0.018891,-0.026211,-0.025778,-0.004658,0.0165,-0.10123
-0.011531,0.029625,0.0040056,0.022993,0.0036281,-0.0032071,0.0034411,-0.18264,0.030105,0.03658,-0.00039418,0.030557,0.06617,-0.17928,-0.075784,-0.58117,0.027031,0.038541,-0.00017276,-0.032716,-0.023379,-0.016716,0.015274,-0.12087
-0.0093978,0.031629,0.0042566,0.02317,0.00019644,-0.0019564,0.0055294,-0.18113,0.038291,0.048117,0.012197,0.028168,0.18116,-0.12306,-0.06503,-0.6054,0.021044,0.02425,-0.020686,-0.037115,-0.018613,-0.021394,0.010253,-0.14791
-0.0030189,0.029977,0.0054506,0.025467,-0.0060816,-0.0065102,0.0048833,-0.15543,0.039244,0.051925,0.023391,0.03309,0.28483,-0.071904,-0.061513,-0.644,0.012238,0.0096241,-0.04459,-0.035092,-0.013182,-0.018525,0.0045647,-0.18517
0.001966,0.02037,0.0056855,0.028552,-0.0148,-0.016771,-0.0012941,-0.1088,0.033869,0.04348,0.030986,0.044339,0.35996,-0.033579,-0.069093,-0.69521,0.002549,-0.0034924,-0.072678,-0.02564,-0.0083137,-0.011363,0.00090332,-0.23143
0.00033558,0.0032607,0.0044597,0.029463,-0.024136,-0.030746,-0.013488,-0.052661,0.027402,0.025931,0.033797,0.054496,0.40197,-0.0054063,-0.081814,-0.76317,-0.0048665,-0.015758,-0.10105,-0.012499,-0.0051724,-0.0046241,0.00020004,-0.2819
-0.0077602,-0.01526,0.00316,0.026014,-0.03201,-0.047007,-0.029087,-0.0003911,0.024701,0.0086354,0.032301,0.055162,0.41686,0.021528,-0.087831,-0.84752,-0.008341,-0.02889,-0.12196,-0.0023387,-0.0046855,-0.0019185,0.0013825,-0.3319
-0.016304,-0.027012,0.0035005,0.018809,-0.037414,-0.065863,-0.043623,0.039251,0.026131,0.0011498,0.028334,0.04369,0.4125,0.054371,-0.077939,-0.93006,-0.0092664,-0.042727,-0.12884,-0.00069242,-0.0068234,-0.0039938,0.0020919,-0.38064
-0.018248,-0.027219,0.0056041,0.011139,-0.040848,-0.088496,-0.053509,0.0655,0.027721,0.0072454,0.024002,0.02566,0.39097,0.092828,-0.052037,-0.97688,-0.01103,-0.053946,-0.12136,-0.0084792,-0.010302,-0.0086892,1.972e-005,-0.43095
-0.011695,-0.017858,0.0077129,0.0067161,-0.043577,-0.11513,-0.058269,0.084142,0.025421,0.023405,0.020642,0.011054,0.34848,0.12946,-0.018569,-0.96153,-0.016139,-0.058277,-0.1063,-0.021648,-0.013389,-0.012643,-0.0056596,-0.48449
-0.0018933,-0.0062717,0.0077921,0.0069495,-0.046193,-0.14377,-0.060406,0.10269,0.01957,0.042555,0.018611,0.0072973,0.28252,0.15472,0.012302,-0.89209,-0.023949,-0.05463,-0.093353,-0.034219,-0.015291,-0.013808,-0.013544,-0.53644
0.0029608,-3.6466e-005,0.0054074,0.0098843,-0.047438,-0.17039,-0.062967,0.12534,0.015387,0.059615,0.017813,0.014791,0.19983,0.16251,0.036108,-0.81619,-0.03095,-0.047214,-0.089234,-0.042421,-0.016812,-0.013115,-0.020632,-0.57506
-0.0013694,-0.0018228,0.0020833,0.011661,-0.044131,-0.1903,-0.066947,0.15063,0.01877,0.074354,0.018261,0.028122,0.11743,0.15254,0.056159,-0.79359,-0.033401,-0.043048,-0.094583,-0.046846,-0.019491,-0.013908,-0.024215,-0.58762
-0.01161,-0.0080381,-5.9441e-005,0.0094023,-0.032543,-0.19994,-0.07089,0.17267,0.030935,0.089656,0.020022,0.041179,0.054936,0.12913,0.078932,-0.85406,-0.030201,-0.046403,-0.10537,-0.051092,-0.023866,-0.019193,-0.023828,-0.56861
-0.019932,-0.012155,3.7059e-005,0.0033344,-0.010641,-0.19869,-0.073006,0.18479,0.046624,0.10729,0.022706,0.051427,0.023246,0.098274,0.10683,-0.97337,-0.023702,-0.054948,-0.11671,-0.058185,-0.028393,-0.02859,-0.021704,-0.52373
-0.020772,-0.010104,0.0019166,-0.0034602,0.020142,-0.18961,-0.073679,0.18316,0.057646,0.1251,0.025186,0.060072,0.018201,0.06515,0.13429,-1.0877,-0.017913,-0.061369,-0.12547,-0.06769,-0.030151,-0.037509,-0.021091,-0.46656
-0.01542,-0.0035372,0.0044994,-0.0073856,0.05495,-0.17858,-0.075711,0.16867,0.058927,0.13789,0.026024,0.068978,0.023734,0.032896,0.15042,-1.1366,-0.015602,-0.059492,-0.1301,-0.075792,-0.026931,-0.039603,-0.0235,-0.41044
-0.010404,0.0015533,0.0071546,-0.0069128,0.087582,-0.17161,-0.081753,0.14633,0.052038,0.14102,0.024413,0.077933,0.021983,0.0024909,0.14611,-1.1018,-0.016589,-0.049699,-0.12914,-0.078155,-0.019114,-0.030969,-0.027039,-0.36136
-0.011316,-0.00023329,0.0098568,-0.0034387,0.11331,-0.17157,-0.091159,0.12305,0.043352,0.13361,0.020884,0.084909,0.0030255,-0.026152,0.12034,-1.0132,-0.018379,-0.038769,-0.12096,-0.073216,-0.0096953,-0.012869,-0.027342,-0.31635
-0.01773,-0.0091111,0.012508,8.1517e-005,0.13047,-0.17671,-0.099388,0.10506,0.038555,0.11884,0.017189,0.08849,-0.031935,-0.051727,0.081405,-0.92047,-0.018377,-0.034082,-0.10534,-0.063336,-0.0022204,0.0092664,-0.020638,-0.26722
-0.023679,-0.019478,0.014435,0.0014658,0.13992,-0.1821,-0.101,0.09574,0.038233,0.10142,0.015317,0.089452,-0.074581,-0.068576,0.042253,-0.85453,-0.015743,-0.037133,-0.085114,-0.053088,0.0018957,0.029822,-0.006693,-0.2066
-0.023,-0.023754,0.014785,0.00071229,0.14308,-0.18328,-0.093959,0.094694,0.038082,0.084342,0.016224,0.089548,-0.1163,-0.065794,0.013746,-0.81071,-0.011501,-0.041984,-0.065415,-0.046155,0.0044665,0.046726,0.010677,-0.13281
-0.014614,-0.017662,0.013444,-0.0004748,0.14047,-0.17931,-0.081623,0.09825,0.033225,0.067457,0.019099,0.088718,-0.15249,-0.03098,0.00022333,-0.7631,-0.0071248,-0.039949,-0.050463,-0.043234,0.0088725,0.061826,0.025984,-0.051563
-0.0031774,-0.0028541,0.011442,-0.00036979,0.13199,-0.17273,-0.070375,0.10131,0.02273,0.048838,0.021738,0.08383,-0.18203,0.041804,4.5421e-006,-0.69519,-0.0030707,-0.026498,-0.040433,-0.042295,0.016706,0.077705,0.035558,0.025769
0.0051751,0.015024,0.010293,0.0014542,0.11821,-0.16665,-0.064807,0.099843,0.010557,0.027705,0.021889,0.07078,-0.20373,0.14459,0.0096363,-0.61861,0.0014395,-0.0045654,-0.031339,-0.040593,0.025509,0.093843,0.039519,0.08673
0.007992,0.031041,0.010827,0.0042326,0.10119,-0.16151,-0.064452,0.092521,0.0024232,0.0064679,0.018738,0.048454,-0.21338,0.25488,0.028093,-0.56332,0.0073712,0.018257,-0.018346,-0.036636,0.029922,0.10571,0.040915,0.12327
0.0081416,0.044529,0.012617,0.0072172,0.083854,-0.1544,-0.064841,0.080598,0.0014182,-0.010056,0.013398,0.020934,-0.20388,0.34454,0.057393,-0.54783,0.014712,0.035976,0.00016817,-0.030702,0.025869,0.10785,0.042964,0.13534
0.010834,0.058682,0.014506,0.010663,0.068513,-0.14129,-0.061899,0.0661,0.0058977,-0.018056,0.0079952,-0.0044491,-0.16819,0.39353,0.099062,-0.55542,0.022313,0.048541,0.021257,-0.023935,0.014488,0.09848,0.046681,0.13001
0.018899,0.076758,0.01569,0.015552,0.056045,-0.12044,-0.055699,0.050046,0.010976,-0.018216,0.0040738,-0.022019,-0.10289,0.39961,0.14947,-0.53724,0.028776,0.060772,0.039845,-0.017148,0.0021389,0.08155,0.050551,0.11635
0.030334,0.098176,0.016292,0.022298,0.046339,-0.094092,-0.050169,0.032337,0.012052,-0.016193,0.0017165,-0.031661,-0.010189,0.37688,0.19849,-0.44165,0.033454,0.077058,0.052778,-0.010338,-0.0041688,0.064138,0.052144,0.099409
0.03988,0.11774,0.016987,0.029745,0.03922,-0.067269,-0.049066,0.013312,0.0075843,-0.019048,0.00014379,-0.038392,0.10208,0.34465,0.23363,-0.24764,0.03657,0.096418,0.06099,-0.0029809,-0.002485,0.0511,0.050109,0.07801
0.042982,0.12855,0.018177,0.035621,0.034549,-0.044932,-0.05194,-0.0047815,-0.0005857,-0.030029,-0.00091908,-0.047814,0.22145,0.31522,0.24751,0.021772,0.038446,0.11213,0.068131,0.0055227,0.0022497,0.041489,0.045078,0.048155
0.03885,0.1264,0.01959,0.038248,0.03139,-0.029445,-0.053907,-0.018288,-0.0090041,-0.045902,-0.00064425,-0.061184,0.33198,0.28964,0.24297,0.31344,0.038723,0.11637,0.077168,0.015664,0.0023016,0.030057,0.03912,0.0090569
0.030485,0.11243,0.020654,0.037998,0.027593,-0.020003,-0.049581,-0.024534,-0.014813,-0.059281,0.0019743,-0.07423,0.41614,0.26336,0.23138,0.57198,0.036446,0.10622,0.088114,0.027664,-0.0059803,0.012859,0.034455,-0.033514
0.022104,0.0923,0.02111,0.037004,0.021149,-0.013967,-0.037671,-0.023994,-0.016964,-0.064236,0.0066382,-0.080725,0.45859,0.23498,0.22443,0.76132,0.030997,0.086406,0.098675,0.040962,-0.018515,-0.0078838,0.032324,-0.069728
0.016174,0.072652,0.021169,0.03714,0.012767,-0.0088548,-0.022064,-0.020041,-0.016064,-0.060489,0.011477,-0.077777,0.45148,0.2095,0.22527,0.86982,0.022978,0.066339,0.10681,0.053563,-0.026619,-0.024263,0.032468,-0.092058
0.012189,0.05728,0.021062,0.037966,0.0071833,-0.0035219,-0.0083722,-0.01634,-0.013415,-0.05266,0.014624,-0.068344,0.39856,0.19334,0.22572,0.90422,0.014129,0.053515,0.11252,0.062102,-0.024535,-0.028679,0.033239,-0.10011
0.0077109,0.045431,0.020582,0.036632,0.011048,0.0021628,0.00095073,-0.014139,-0.010056,-0.045436,0.016212,-0.058844,0.31427,0.18644,0.21199,0.88345,0.0063078,0.048136,0.11727,0.063178,-0.014808,-0.020559,0.032316,-0.099952
0.00063482,0.033322,0.019198,0.030143,0.028063,0.008565,0.0084385,-0.011787,-0.0063692,-0.039276,0.018578,-0.053885,0.21728,0.17991,0.1749,0.83631,0.00041838,0.043206,0.12188,0.055394,-0.006574,-0.0079238,0.027908,-0.098908
-0.0089907,0.017797,0.016679,0.01822,0.055047,0.01708,0.01873,-0.0066216,-0.0023688,-0.030697,0.024072,-0.052572,0.12181,0.16173,0.11665,0.79806,-0.0037443,0.030351,0.12516,0.040627,-0.0079902,-0.002046,0.019951,-0.10056
-0.018732,-0.00047245,0.0135,0.0042551,0.082702,0.029427,0.033694,0.0027248,0.0016017,-0.016851,0.032364,-0.049432,0.032811,0.1256,0.049312,0.80037,-0.0067307,0.0071171,0.12481,0.023358,-0.019364,-0.0092686,0.010424,-0.10419
-0.025202,-0.016799,0.010524,-0.006676,0.10134,0.045818,0.050212,0.015604,0.0043624,7.954e-005,0.040018,-0.039082,-0.051749,0.074914,-0.013633,0.85806,-0.0086255,-0.020048,0.11975,0.0083275,-0.033047,-0.02659,0.0021142,-0.10832
-0.026218,-0.025817,0.0082246,-0.011279,0.10753,0.063747,0.062837,0.030364,0.004185,0.013104,0.043158,-0.020758,-0.13376,0.018914,-0.065695,0.96277,-0.0090676,-0.039916,0.11169,-0.0018656,-0.04019,-0.044491,-0.0037872,-0.11426
-0.022321,-0.026008,0.006337,-0.010209,0.10633,0.078978,0.068903,0.045601,-1.8866e-005,0.015533,0.041,0.00088912,-0.20912,-0.034413,-0.10915,1.0905,-0.0080416,-0.044883,0.1046,-0.0075366,-0.038325,-0.05445,-0.0097115,-0.12543
-0.016582,-0.021653,0.0043782,-0.007205,0.10705,0.088477,0.07124,0.06036,-0.0073646,0.0066801,0.036932,0.019095,-0.26797,-0.081502,-0.14943,1.2177,-0.0064977,-0.037092,0.10249,-0.01068,-0.033025,-0.054872,-0.021718,-0.14269
-0.012699,-0.020111,0.0025402,-0.0059966,0.1156,0.092896,0.075751,0.073491,-0.014753,-0.0069122,0.035856,0.029599,-0.30049,-0.12017,-0.18759,1.3321,-0.0059644,-0.027158,0.10729,-0.01291,-0.032286,-0.050872,-0.047049,-0.15975
-0.012575,-0.026177,0.0019283,-0.0075574,0.12964,0.096125,0.08593,0.083407,-0.018393,-0.016029,0.040015,0.033021,-0.30332,-0.14519,-0.21756,1.4318,-0.0073641,-0.026196,0.11823,-0.014293,-0.038848,-0.048808,-0.090472,-0.16385
-0.015154,-0.038142,0.0036988,-0.0098334,0.14038,0.10176,0.099303,0.08887,-0.016304,-0.015518,0.047082,0.033547,-0.28153,-0.14885,-0.23047,1.5147,-0.010143,-0.037423,0.13282,-0.013901,-0.047487,-0.050731,-0.15138,-0.14228
-0.017475,-0.049101,0.0077896,-0.0098969,0.13966,0.10929,0.10911,0.090053,-0.0098805,-0.007724,0.052274,0.03534,-0.24499,-0.12748,-0.22211,1.5733,-0.012632,-0.054035,0.14854,-0.011381,-0.049719,-0.053433,-0.22304,-0.090817
-0.017209,-0.052668,0.012475,-0.0065411,0.12666,0.11364,0.10967,0.088623,-0.0030286,7.0238e-005,0.052573,0.039559,-0.20239,-0.087469,-0.19676,1.5998,-0.013389,-0.064899,0.16397,-0.0080148,-0.041613,-0.052253,-0.29413,-0.017484
-0.014599,-0.048154,0.015312,-0.0012239,0.10911,0.10901,0.10077,0.086563,0.00072821,0.0019624,0.049129,0.044071,-0.1577,-0.043894,-0.16451,1.5974,-0.012301,-0.063203,0.17873,-0.0062644,-0.02763,-0.045617,-0.35202,0.061269
-0.012061,-0.040599,0.014789,0.003149,0.098348,0.094224,0.087187,0.084874,0.00092178,-0.0016768,0.045658,0.045732,-0.11164,-0.011672,-0.13482,1.5816,-0.010408,-0.051,0.19225,-0.0081694,-0.017082,-0.036053,-0.38674,0.1295
-0.011709,-0.035612,0.011327,0.0043531,0.10238,0.075218,0.074526,0.083421,0.00035373,-0.0045775,0.044496,0.043279,-0.066364,0.003098,-0.11212,1.5677,-0.0086626,-0.036388,0.20224,-0.013963,-0.01641,-0.02713,-0.39472,0.17941
-0.013028,-0.033857,0.0068852,0.0021627,0.12206,0.062097,0.065208,0.08198,0.0025962,0.00031477,0.04414,0.038604,-0.02908,0.0035215,-0.096743,1.5529,-0.0068727,-0.026362,0.20406,-0.02202,-0.024047,-0.01969,-0.38028,0.21259
-0.012953,-0.030507,0.0035854,-0.0019004,0.15253,0.062908,0.058233,0.081168,0.0088342,0.015225,0.040696,0.035497,-0.010501,-0.0059145,-0.088688,1.5117,-0.0039703,-0.021687,0.19239,-0.030035,-0.032116,-0.011288,-0.35357,0.23517
-0.0085398,-0.020399,0.0025041,-0.0057944,0.18766,0.078832,0.052142,0.082086,0.016679,0.035808,0.031807,0.036866,-0.017926,-0.026784,-0.08931,1.41,0.00054902,-0.017857,0.16461,-0.036304,-0.033123,0.00049069,-0.32492,0.25164
8.8831e-005,-0.004143,0.0034233,-0.008013,0.22326,0.10436,0.0477,0.085007,0.021904,0.054344,0.019288,0.04258,-0.047565,-0.06513,-0.098845,1.2301,0.0053659,-0.010604,0.12375,-0.040067,-0.025726,0.014071,-0.29883,0.26271
0.0092523,0.01078,0.0054052,-0.0078322,0.25692,0.13184,0.047407,0.088677,0.021628,0.065011,0.0079446,0.049613,-0.082752,-0.12132,-0.1128,0.98538,0.0076354,-0.00058363,0.078107,-0.040975,-0.014973,0.02336,-0.27201,0.26798
0.014363,0.015551,0.0074828,-0.0049936,0.28543,0.15635,0.052455,0.091252,0.016367,0.067084,0.0017092,0.054386,-0.10145,-0.18137,-0.12222,0.7127,0.0049373,0.0069812,0.036964,-0.038609,-0.0075077,0.021816,-0.23772,0.27011
0.013534,0.007616,0.0089631,0.00053456,0.30312,0.1771,0.060415,0.092129,0.0094576,0.063969,0.00070244,0.055418,-0.089356,-0.22,-0.11914,0.45162,-0.0025508,0.0072348,0.0050042,-0.032799,-0.0063483,0.0080611,-0.19351,0.27553
0.0090158,-0.0064231,0.0094329,0.0083948,0.30332,0.19491,0.066238,0.092705,0.0045226,0.059494,0.0017637,0.054092,-0.049549,-0.2154,-0.10275,0.22643,-0.011513,0.00058066,-0.019973,-0.024442,-0.0095141,-0.011685,-0.14584,0.2906
0.0051756,-0.015554,0.0088374,0.01752,0.28226,0.20894,0.0659,0.095029,0.0030355,0.054773,0.0016409,0.052939,-0.0007661,-0.16463,-0.080022,0.043986,-0.017308,-0.0069488,-0.043842,-0.015775,-0.012846,-0.02675,-0.10702,0.31654
0.0048162,-0.012962,0.0077209,0.026123,0.24263,0.21598,0.059435,0.099491,0.0037023,0.04801,-0.00030683,0.052975,0.035099,-0.086771,-0.059351,-0.096355,-0.016983,-0.0082972,-0.069974,-0.009494,-0.013765,-0.028721,-0.085795,0.3478
0.0070509,-0.001188,0.0072705,0.032217,0.19399,0.21291,0.050703,0.10392,0.003802,0.036889,-0.0022075,0.052582,0.047206,-0.010818,-0.042529,-0.19413,-0.011248,-0.0010383,-0.095572,-0.0072911,-0.012555,-0.016801,-0.079153,0.37553
0.008534,0.010582,0.0087714,0.034429,0.1491,0.19991,0.044168,0.10528,0.0012547,0.021299,-0.0020074,0.049014,0.040791,0.042113,-0.022708,-0.2496,-0.0038391,0.01078,-0.11401,-0.0090358,-0.010719,0.0020586,-0.072319,0.39313
0.0068317,0.014712,0.012609,0.032646,0.11809,0.18115,0.041541,0.1025,-0.0040479,0.0042542,0.00050653,0.04122,0.029544,0.068558,0.0090298,-0.27295,0.0013178,0.020189,-0.12112,-0.013253,-0.0087944,0.018148,-0.047466,0.3988
0.0028783,0.011694,0.017571,0.028082,0.10369,0.16215,0.040989,0.09761,-0.010327,-0.0094641,0.0038179,0.031323,0.022287,0.078369,0.053906,-0.28959,0.0029266,0.023232,-0.11951,-0.018351,-0.0061283,0.025252,0.0055923,0.39331
0.00036391,0.0095729,0.021237,0.022708,0.10025,0.14597,0.03918,0.093661,-0.015092,-0.015823,0.0064134,0.023222,0.015427,0.082149,0.10122,-0.33374,0.0028824,0.022234,-0.11649,-0.023463,-0.0026662,0.023764,0.084633,0.3755
0.0026296,0.01694,0.021486,0.018354,0.097169,0.13138,0.034042,0.091239,-0.016545,-0.013597,0.008149,0.019417,-0.0026868,0.082094,0.13371,-0.43183,0.004169,0.023679,-0.11729,-0.028307,-0.00047135,0.019013,0.17846,0.34018
0.0097617,0.035673,0.018098,0.016026,0.084754,0.11455,0.025869,0.08698,-0.014481,-0.0048744,0.0099717,0.018858,-0.039824,0.073016,0.13811,-0.58541,0.0079347,0.032541,-0.11976,-0.032537,-0.0028502,0.016809,0.27394,0.2808
0.018315,0.059389,0.013091,0.015803,0.059192,0.092882,0.016159,0.076109,-0.010332,0.0061194,0.012571,0.017834,-0.091093,0.050393,0.11229,-0.76368,0.012318,0.04782,-0.11599,-0.03546,-0.011442,0.019725,0.36028,0.19456
0.023837,0.078409,0.0093009,0.017264,0.023764,0.067804,0.0056477,0.057182,-0.0064558,0.015121,0.015502,0.013192,-0.14096,0.01673,0.063761,-0.91067,0.014083,0.062944,-0.099586,-0.03649,-0.023954,0.026368,0.42885,0.086132
0.024093,0.086601,0.0082066,0.01995,-0.014005,0.044334,-0.0064959,0.034755,-0.0050238,0.019657,0.017592,0.0050764,-0.17423,-0.019449,0.0025295,-0.96543,0.011618,0.070517,-0.072466,-0.035854,-0.035009,0.033302,0.47224,-0.03227
0.020448,0.084546,0.0088214,0.023427,-0.047111,0.027539,-0.021607,0.017134,-0.0069464,0.019627,0.018001,-0.0032792,-0.18659,-0.050044,-0.064468,-0.88797,0.0065863,0.067447,-0.044722,-0.03479,-0.039851,0.037689,0.48676,-0.14354
0.016434,0.077289,0.008682,0.026995,-0.072542,0.018696,-0.039613,0.010679,-0.011308,0.016511,0.01677,-0.0085213,-0.18631,-0.072826,-0.13294,-0.68012,0.0026606,0.056491,-0.027391,-0.034971,-0.037878,0.038958,0.4774,-0.22932
0.014792,0.069585,0.0061031,0.029527,-0.091475,0.014182,-0.057995,0.015427,-0.01562,0.012029,0.014444,-0.010224,-0.18618,-0.09156,-0.1971,-0.391,0.0024266,0.04347,-0.024272,-0.037599,-0.03287,0.038973,0.45968,-0.27416
0.015394,0.062924,0.0016814,0.029858,-0.1067,0.0080658,-0.07261,0.025817,-0.016925,0.0073819,0.011411,-0.011204,-0.19293,-0.11198,-0.24792,-0.10161,0.0051948,0.032862,-0.029828,-0.042831,-0.029541,0.040992,0.45386,-0.27061
0.015643,0.056127,-0.0022923,0.027485,-0.11972,-0.0035944,-0.079858,0.035817,-0.013342,0.0034657,0.0077625,-0.014758,-0.20248,-0.13782,-0.27666,0.10699,0.0076891,0.025353,-0.034903,-0.049845,-0.029366,0.047872,0.47405,-0.22351
0.012951,0.04786,-0.0038858,0.022946,-0.12989,-0.020207,-0.078799,0.043853,-0.0052786,0.0014428,0.0036928,-0.021322,-0.20416,-0.16943,-0.28075,0.18791,0.0069814,0.018814,-0.035026,-0.057369,-0.029365,0.060119,0.52038,-0.14999
0.0072417,0.038305,-0.003068,0.017431,-0.136,-0.037872,-0.071888,0.053291,0.0044687,0.002658,-0.00020335,-0.027697,-0.18985,-0.20421,-0.26606,0.14809,0.0030434,0.011308,-0.033849,-0.064262,-0.024935,0.074773,0.58104,-0.072519
0.0014424,0.028932,-0.001388,0.011963,-0.13865,-0.053142,-0.063919,0.068413,0.011954,0.0076432,-0.003239,-0.029762,-0.1608,-0.23682,-0.2429,0.0424,-0.0013173,0.0033956,-0.03867,-0.069932,-0.014209,0.086233,0.6425,-0.0077498
-0.00050266,0.021376,-0.00034166,0.0069243,-0.14089,-0.065803,-0.059746,0.089802,0.014083,0.015097,-0.005232,-0.026387,-0.1276,-0.25914,-0.21921,-0.05471,-0.0029855,-0.001979,-0.052147,-0.074517,-6.2151e-005,0.089133,0.6989,0.041528
0.0034115,0.016826,-0.0001962,0.0023008,-0.14643,-0.078025,-0.061881,0.11321,0.010237,0.022057,-0.0066743,-0.021027,-0.10402,-0.26196,-0.19688,-0.084736,-0.0012131,-0.0017014,-0.067758,-0.078811,0.011969,0.081751,0.75196,0.085078
0.011605,0.016048,-0.00034971,-0.0017718,-0.15675,-0.090702,-0.069148,0.13245,0.0025883,0.025511,-0.0082091,-0.01935,-0.099759,-0.23903,-0.17403,-0.028636,0.0018905,0.004982,-0.073338,-0.083846,0.017954,0.067533,0.80141,0.13511
0.019878,0.019202,-0.00053722,-0.0049123,-0.16962,-0.10064,-0.077118,0.14334,-0.0050468,0.024301,-0.0099434,-0.024659,-0.11649,-0.19151,-0.14997,0.093255,0.0033266,0.015412,-0.059959,-0.090203,0.01828,0.053295,0.83539,0.19535
0.024261,0.025151,-0.0013224,-0.0069948,-0.18054,-0.10179,-0.080247,0.14536,-0.0091174,0.019707,-0.01132,-0.034859,-0.1488,-0.12893,-0.12746,0.24187,0.0017155,0.024646,-0.028871,-0.097417,0.016639,0.045103,0.83118,0.25794
0.023593,0.031136,-0.0032651,-0.0085639,-0.18601,-0.089972,-0.074702,0.14046,-0.0080271,0.014148,-0.011665,-0.043551,-0.18804,-0.065023,-0.10998,0.38557,-0.001927,0.028082,0.0091056,-0.10398,0.016521,0.04472,0.768,0.31038
0.019903,0.033834,-0.0058192,-0.010443,-0.18585,-0.067163,-0.06026,0.13093,-0.0028553,0.0090811,-0.010837,-0.044531,-0.22598,-0.010729,-0.097001,0.5151,-0.0056818,0.023991,0.040949,-0.1081,0.0185,0.049124,0.64315,0.34592
0.016478,0.031454,-0.0074723,-0.012743,-0.18287,-0.041186,-0.040119,0.11842,0.0031524,0.0038394,-0.0093483,-0.036281,-0.25657,0.03073,-0.082644,0.64046,-0.0088742,0.014387,0.059461,-0.10887,0.020548,0.053242,0.47831,0.36832
0.015285,0.025159,-0.0072865,-0.014352,-0.18008,-0.020709,-0.018736,0.10415,0.0061697,-0.0036839,-0.007995,-0.023214,-0.27603,0.063292,-0.059598,0.77638,-0.01269,0.0036362,0.06591,-0.1069,0.020669,0.053634,0.31053,0.38693
0.015833,0.018396,-0.0062862,-0.013749,-0.1781,-0.0094605,0.0007911,0.089204,0.0038714,-0.015111,-0.0074442,-0.012961,-0.28283,0.09285,-0.025073,0.93001,-0.018601,-0.0043053,0.066221,-0.1039,0.019112,0.050405,0.17364,0.4069
0.01615,0.014512,-0.0069946,-0.010597,-0.17491,-0.0044972,0.018,0.074144,-0.0030195,-0.029906,-0.0081088,-0.011823,-0.2784,0.12142,0.016858,1.0992,-0.02611,-0.0081966,0.064848,-0.10142,0.018081,0.046338,0.083215,0.42327
0.014824,0.014669,-0.011171,-0.0065677,-0.16802,9.2353e-005,0.034247,0.059015,-0.010867,-0.045098,-0.010124,-0.021424,-0.26763,0.14472,0.058767,1.2783,-0.032084,-0.009789,0.061604,-0.09957,0.019439,0.044429,0.034587,0.42448
0.012275,0.017709,-0.017731,-0.0043182,-0.157,0.0074058,0.050693,0.04463,-0.015333,-0.05656,-0.013168,-0.038372,-0.25769,0.15429,0.095893,1.4607,-0.03256,-0.012017,0.053394,-0.096854,0.022775,0.045857,0.012854,0.40231
0.010345,0.021793,-0.02294,-0.0052852,-0.14417,0.015021,0.066838,0.034426,-0.014516,-0.061121,-0.016316,-0.056585,-0.25455,0.14229,0.12871,1.634,-0.025673,-0.016607,0.038374,-0.091328,0.025737,0.04948,0.0054133,0.35979
0.010804,0.026024,-0.023011,-0.0083043,-0.1328,0.017743,0.080697,0.0345,-0.01067,-0.058395,-0.018411,-0.070612,-0.25893,0.1058,0.15924,1.7732,-0.013291,-0.022971,0.018488,-0.082436,0.026223,0.052483,0.007328,0.31026
0.014109,0.030567,-0.017056,-0.010506,-0.12469,0.013213,0.090284,0.050246,-0.0087454,-0.0512,-0.019022,-0.078162,-0.26493,0.048545,0.1845,1.8443,-3.6407e-005,-0.029104,-0.0016686,-0.072081,0.024199,0.051257,0.017392,0.26826
0.019269,0.035483,-0.0079346,-0.0098634,-0.11911,0.0051445,0.095044,0.081177,-0.012409,-0.044023,-0.019175,-0.080813,-0.2633,-0.020216,0.1938,1.8216,0.0094826,-0.033477,-0.018277,-0.063903,0.021364,0.042218,0.030795,0.24008
0.024568,0.039806,-0.00029709,-0.0070866,-0.11389,0.00095978,0.096114,0.11817,-0.020657,-0.040153,-0.020905,-0.08273,-0.24756,-0.088758,0.1742,1.7079,0.013127,-0.036191,-0.030948,-0.060974,0.019041,0.023062,0.036366,0.2217
0.028408,0.041987,0.0025804,-0.0049698,-0.10745,0.0056984,0.095391,0.14648,-0.028135,-0.039382,-0.025611,-0.088045,-0.21849,-0.14651,0.1214,1.5385,0.011758,-0.038509,-0.042556,-0.063443,0.016585,-0.0053499,0.021443,0.20543
0.029757,0.041224,0.00072107,-0.0056365,-0.099978,0.017512,0.094311,0.15358,-0.029341,-0.03827,-0.032578,-0.098194,-0.18321,-0.18696,0.047905,1.3646,0.0079025,-0.041486,-0.056639,-0.067985,0.012138,-0.03753,-0.019638,0.18836
0.028258,0.038156,-0.0031467,-0.0082094,-0.092926,0.028818,0.093241,0.13637,-0.02335,-0.033263,-0.039174,-0.11076,-0.14957,-0.20874,-0.018986,1.2249,0.0038653,-0.045242,-0.07437,-0.069786,0.0052394,-0.064126,-0.080768,0.17451
0.024208,0.033985,-0.0059533,-0.0092653,-0.087506,0.032218,0.091747,0.10235,-0.014901,-0.024383,-0.042833,-0.12076,-0.12016,-0.21435,-0.050123,1.1284,0.00063365,-0.049651,-0.093082,-0.065832,-0.0013385,-0.07574,-0.14733,0.16842
0.018432,0.028884,-0.0064741,-0.0059762,-0.08363,0.026141,0.089279,0.063382,-0.010696,-0.016174,-0.043154,-0.12376,-0.091121,-0.20724,-0.030859,1.0602,-0.0019853,-0.055543,-0.10715,-0.057101,-0.0027822,-0.068108,-0.20535,0.16651
0.01197,0.021453,-0.0057941,0.00072464,-0.079996,0.01545,0.085697,0.02718,-0.014014,-0.014564,-0.042155,-0.11899,-0.056184,-0.18915,0.029945,1.0025,-0.0044588,-0.064669,-0.11075,-0.047924,0.0039926,-0.045104,-0.24955,0.15535
0.0057361,0.010194,-0.00596,0.0059179,-0.075002,0.0067839,0.081314,-0.0069798,-0.022324,-0.021886,-0.042398,-0.11006,-0.012308,-0.15984,0.10493,0.95112,-0.0066603,-0.077734,-0.10122,-0.042952,0.017187,-0.016854,-0.2843,0.11991
0.0004181,-0.0041507,-0.008025,0.0040121,-0.067683,0.0028589,0.076533,-0.044927,-0.029847,-0.034313,-0.044707,-0.1028,0.037726,-0.11954,0.16457,0.9128,-0.0076387,-0.091926,-0.081197,-0.04405,0.03073,0.0062622,-0.31697,0.055887
-0.0032858,-0.017717,-0.011004,-0.0068421,-0.058229,0.0006057,0.071415,-0.089975,-0.03256,-0.044185,-0.047621,-0.10128,0.087211,-0.072194,0.19435,0.88854,-0.0061742,-0.10064,-0.058312,-0.049372,0.038683,0.019426,-0.34973,-0.024254
-0.0045031,-0.025523,-0.012522,-0.022791,-0.048119,-0.0056114,0.06552,-0.13774,-0.031036,-0.045467,-0.048977,-0.10509,0.12945,-0.026471,0.2013,0.86006,-0.0017862,-0.096828,-0.041985,-0.055003,0.039873,0.02456,-0.37678,-0.097134
-0.0025631,-0.025193,-0.010722,-0.03654,-0.03996,-0.018731,0.058234,-0.17784,-0.028791,-0.037712,-0.047979,-0.10954,0.1603,0.0071155,0.20619,0.79458,0.0044937,-0.078206,-0.039046,-0.057502,0.038585,0.026079,-0.38949,-0.14192
0.0021758,-0.019344,-0.0060405,-0.042327,-0.03679,-0.036051,0.049391,-0.20094,-0.028086,-0.025264,-0.04573,-0.10881,0.1784,0.021405,0.22736,0.66584,0.010276,-0.050305,-0.050688,-0.055331,0.040419,0.025161,-0.38482,-0.15125
0.0078233,-0.014237,-0.0014074,-0.039924,-0.040705,-0.050601,0.039667,-0.20504,-0.027387,-0.012762,-0.043837,-0.099715,0.18436,0.016427,0.26827,0.4746,0.013073,-0.024164,-0.0726,-0.048579,0.046856,0.017887,-0.36917,-0.13214
0.01156,-0.015293,-0.0004356,-0.034585,-0.051417,-0.055308,0.030253,-0.19605,-0.022884,-0.0012851,-0.042657,-0.083494,0.18088,-0.0012704,0.3169,0.25236,0.011993,-0.0096221,-0.097839,-0.038025,0.053518,-0.00085022,-0.35402,-0.097652
0.011237,-0.0229,-0.0047142,-0.032888,-0.06588,-0.046803,0.02187,-0.18254,-0.012492,0.01134,-0.040949,-0.064542,0.17291,-0.023692,0.35607,0.046131,0.008661,-0.0089904,-0.12015,-0.024813,0.053937,-0.03118,-0.34736,-0.057382
0.0068544,-0.032107,-0.012253,-0.037601,-0.079727,-0.026719,0.013949,-0.16954,0.0014606,0.026722,-0.037234,-0.047332,0.16625,-0.047305,0.37543,-0.10349,0.0064494,-0.016107,-0.13559,-0.010818,0.045577,-0.065738,-0.34909,-0.014152
0.00063298,-0.036747,-0.018532,-0.045544,-0.089797,-0.00042669,0.0048237,-0.15629,0.013331,0.042572,-0.031451,-0.033804,0.16435,-0.075349,0.37597,-0.17563,0.0082797,-0.021623,-0.14223,0.0013307,0.032604,-0.093584,-0.35449,0.031944
-0.0045704,-0.034793,-0.019663,-0.050225,-0.095936,0.025528,-0.0069558,-0.13924,0.01801,0.0533,-0.025336,-0.022862,0.16569,-0.11452,0.36475,-0.16912,0.014431,-0.020267,-0.13933,0.0093339,0.022704,-0.10749,-0.36177,0.077595
-0.0073859,-0.030402,-0.015352,-0.047201,-0.10067,0.045975,-0.021219,-0.11689,0.014293,0.054152,-0.02125,-0.011899,0.1654,-0.16804,0.34624,-0.096736,0.022024,-0.014203,-0.1272,0.012823,0.020757,-0.10832,-0.37515,0.11489
-0.0088735,-0.030681,-0.0092371,-0.037876,-0.10708,0.058764,-0.035955,-0.09222,0.0052214,0.045071,-0.02056,0.001124,0.16111,-0.22992,0.31814,0.01617,0.026782,-0.0099438,-0.1076,0.013936,0.025075,-0.10268,-0.39936,0.13609
-0.011388,-0.039602,-0.0061598,-0.028589,-0.11672,0.06498,-0.048606,-0.07104,-0.0044702,0.030672,-0.022845,0.016505,0.15845,-0.2847,0.27518,0.12779,0.025973,-0.011783,-0.083535,0.015985,0.029615,-0.096303,-0.43065,0.14023
-0.016145,-0.054089,-0.0084228,-0.025727,-0.12917,0.067579,-0.057791,-0.058224,-0.0116,0.016316,-0.026334,0.032964,0.17051,-0.31361,0.21651,0.18124,0.020438,-0.017519,-0.057991,0.021022,0.029969,-0.089077,-0.45433,0.13513
-0.021502,-0.065715,-0.014058,-0.030908,-0.1433,0.069185,-0.063909,-0.055198,-0.016185,0.0037907,-0.028967,0.048483,0.20945,-0.30382,0.14947,0.12141,0.014134,-0.020064,-0.032651,0.028243,0.027527,-0.076265,-0.45353,0.13264
-0.023596,-0.06685,-0.018549,-0.040129,-0.15855,0.070508,-0.068093,-0.060161,-0.02067,-0.009523,-0.029353,0.060913,0.27565,-0.25528,0.085845,-0.075791,0.011406,-0.013387,-0.0078334,0.034574,0.028021,-0.054371,-0.42308,0.14067
-0.019188,-0.056304,-0.018622,-0.047324,-0.17479,0.070647,-0.070611,-0.069982,-0.027546,-0.027288,-0.027246,0.068116,0.35317,-0.18081,0.033784,-0.3805,0.013975,0.0023967,0.016168,0.03696,0.035962,-0.026024,-0.37643,0.15877
-0.008526,-0.039804,-0.014943,-0.049008,-0.19109,0.068951,-0.070417,-0.081669,-0.037034,-0.049683,-0.023581,0.068149,0.41624,-0.099431,-0.0074891,-0.71313,0.019874,0.021025,0.037799,0.034579,0.050227,0.0006713,-0.33831,0.18074
0.0042738,-0.024952,-0.011468,-0.046067,-0.2048,0.066645,-0.066429,-0.092533,-0.046358,-0.071849,-0.020104,0.06,0.4431,-0.026898,-0.045539,-0.98025,0.02513,0.034942,0.054524,0.029388,0.064727,0.017725,-0.32793,0.20176
0.01399,-0.01495,-0.011963,-0.041622,-0.2123,0.06643,-0.059319,-0.099966,-0.051224,-0.086926,-0.018569,0.04458,0.42725,0.030415,-0.086878,-1.1225,0.02683,0.040765,0.064626,0.024835,0.073289,0.022816,-0.34588,0.22364
0.018126,-0.0064682,-0.016601,-0.037521,-0.21122,0.070167,-0.051885,-0.10207,-0.048714,-0.091305,-0.019755,0.024966,0.37817,0.075116,-0.13006,-1.1433,0.02509,0.040818,0.068834,0.023835,0.074203,0.020195,-0.37464,0.2533
0.018571,0.0065418,-0.021511,-0.032927,-0.20226,0.076789,-0.047365,-0.099127,-0.039668,-0.087705,-0.022905,0.0051566,0.31188,0.11329,-0.1654,-1.0985,0.022396,0.039772,0.070044,0.027353,0.070619,0.016576,-0.39161,0.29635
0.019528,0.026417,-0.021722,-0.026092,-0.18905,0.082646,-0.047043,-0.094512,-0.028648,-0.083384,-0.026114,-0.012048,0.23957,0.14895,-0.18129,-1.0537,0.021013,0.039537,0.071147,0.034224,0.067102,0.015814,-0.3836,0.35166
0.023465,0.048329,-0.015189,-0.017128,-0.17618,0.084343,-0.049347,-0.093564,-0.021179,-0.084767,-0.027561,-0.026363,0.16306,0.18271,-0.17171,-1.0401,0.020812,0.03688,0.072756,0.042058,0.065957,0.016575,-0.35227,0.41223
0.028737,0.062908,-0.0047125,-0.0087634,-0.16676,0.081692,-0.051327,-0.10062,-0.020167,-0.092789,-0.02671,-0.039245,0.079385,0.21452,-0.13907,-1.0375,0.019526,0.025776,0.072889,0.048684,0.066528,0.014249,-0.30816,0.47117
0.031083,0.062912,0.0037805,-0.0042359,-0.16115,0.078042,-0.051173,-0.1161,-0.024257,-0.10265,-0.024538,-0.051572,-0.011268,0.24627,-0.091017,-0.99537,0.015234,0.0025312,0.069127,0.053452,0.067379,0.0049385,-0.26033,0.52671
0.027647,0.048517,0.0052926,-0.004433,-0.1571,0.077431,-0.049476,-0.13606,-0.02942,-0.10795,-0.022632,-0.061968,-0.10188,0.28048,-0.03484,-0.87191,0.0087844,-0.030384,0.061752,0.05775,0.068498,-0.011676,-0.20997,0.58074
0.019708,0.026968,-0.00085348,-0.0070984,-0.15073,0.080865,-0.048163,-0.15497,-0.032346,-0.10571,-0.021913,-0.067579,-0.18206,0.31565,0.025399,-0.66397,0.0037842,-0.064668,0.055488,0.06426,0.071056,-0.032276,-0.15147,0.63186
0.011523,0.0069875,-0.010706,-0.0088891,-0.13756,0.084903,-0.048285,-0.16998,-0.03263,-0.097986,-0.022034,-0.066868,-0.24461,0.34347,0.087474,-0.40867,0.0038524,-0.090162,0.058235,0.075121,0.075089,-0.052081,-0.077728,0.66965
0.0063503,-0.0074625,-0.018512,-0.0083476,-0.11368,0.083944,-0.048906,-0.18368,-0.031934,-0.089238,-0.021889,-0.061888,-0.28866,0.35204,0.14799,-0.16037,0.0093436,-0.099385,0.077036,0.08995,0.077849,-0.067494,0.015465,0.67713
0.0034276,-0.019121,-0.020502,-0.0070954,-0.07739,0.074538,-0.048139,-0.20239,-0.031242,-0.082068,-0.020675,-0.057695,-0.31716,0.33429,0.20164,0.03864,0.016422,-0.089596,0.11333,0.10511,0.075134,-0.077607,0.12845,0.64152
-0.0011985,-0.033767,-0.016958,-0.0082972,-0.030946,0.058359,-0.045174,-0.23079,-0.029132,-0.075328,-0.01854,-0.059065,-0.33225,0.29473,0.24381,0.17561,0.019519,-0.061803,0.16033,0.11505,0.065056,-0.083857,0.25904,0.56543
-0.010757,-0.054222,-0.011366,-0.013878,0.018776,0.041431,-0.041153,-0.26625,-0.022986,-0.066084,-0.016279,-0.067136,-0.33421,0.24826,0.27371,0.26676,0.015367,-0.018627,0.20463,0.11526,0.051047,-0.088128,0.4035,0.46892
-0.024368,-0.077063,-0.0076582,-0.022872,0.061827,0.030113,-0.037929,-0.29769,-0.012011,-0.05327,-0.014461,-0.078639,-0.32525,0.21077,0.2944,0.34288,0.0054135,0.03651,0.23205,0.10504,0.041016,-0.090502,0.55608,0.37929
-0.037247,-0.094773,-0.0077546,-0.032068,0.088701,0.026805,-0.035983,-0.3108,0.0010121,-0.039384,-0.012866,-0.088144,-0.31391,0.18872,0.3091,0.4304,-0.0053264,0.098188,0.23502,0.088236,0.04258,-0.08828,0.7074,0.31517
-0.044238,-0.10159,-0.010998,-0.038189,0.094055,0.028537,-0.033704,-0.2969,0.011299,-0.028616,-0.010824,-0.091312,-0.31391,0.17604,0.31678,0.53617,-0.012042,0.15758,0.21719,0.07125,0.057759,-0.077294,0.84302,0.27669
-0.043507,-0.098277,-0.015373,-0.039817,0.078607,0.029352,-0.028967,-0.25933,0.015772,-0.023219,-0.0081281,-0.086844,-0.33632,0.16083,0.31148,0.64269,-0.013507,0.20345,0.19179,0.05954,0.081461,-0.054928,0.94313,0.24943
-0.037408,-0.091803,-0.019105,-0.037867,0.04842,0.02446,-0.021587,-0.21243,0.015536,-0.021585,-0.0055427,-0.07637,-0.3808,0.13619,0.28641,0.71684,-0.012459,0.22644,0.17388,0.054905,0.10525,-0.022722,0.98481,0.21866
-0.03027,-0.090176,-0.021371,-0.034615,0.012383,0.01294,-0.014232,-0.17341,0.014732,-0.01979,-0.0042731,-0.063158,-0.43358,0.10615,0.2397,0.72747,-0.012895,0.22437,0.17065,0.055397,0.12356,0.0136,0.94731,0.18218
-0.025402,-0.09643,-0.022035,-0.0322,-0.020589,-0.002907,-0.010674,-0.15244,0.016709,-0.015171,-0.0047971,-0.050751,-0.47496,0.081861,0.17685,0.66028,-0.016636,0.20443,0.17617,0.057773,0.13718,0.046905,0.81945,0.15107
-0.023739,-0.10669,-0.021234,-0.031518,-0.04374,-0.020515,-0.012737,-0.148,0.021036,-0.008705,-0.006247,-0.041881,-0.49099,0.071737,0.10778,0.51846,-0.022002,0.17992,0.17494,0.060412,0.15124,0.072208,0.60578,0.13792
-0.024537,-0.11374,-0.019425,-0.031966,-0.05388,-0.039347,-0.018511,-0.15009,0.024109,-0.0040978,-0.0071093,-0.037585,-0.48017,0.07386,0.041059,0.31032,-0.0255,0.16274,0.15287,0.064324,0.16932,0.088398,0.32759,0.1431
-0.026719,-0.11315,-0.017623,-0.032003,-0.051987,-0.060266,-0.023412,-0.14847,0.022766,-0.0044455,-0.0066854,-0.036882,-0.45068,0.077013,-0.019604,0.039161,-0.024908,0.15688,0.10856,0.071423,0.18918,0.097238,0.017571,0.15141
-0.029412,-0.10651,-0.017102,-0.03016,-0.042556,-0.08261,-0.023226,-0.13929,0.017492,-0.009312,-0.0058476,-0.037704,-0.41138,0.069193,-0.074144,-0.28861,-0.02108,0.15759,0.05663,0.081656,0.20376,0.10116,-0.28854,0.14265
-0.031634,-0.099404,-0.018446,-0.026012,-0.031487,-0.10212,-0.016767,-0.12566,0.012202,-0.014614,-0.0061999,-0.038927,-0.36515,0.046393,-0.12212,-0.6395,-0.016984,0.15664,0.01926,0.09167,0.20667,0.10213,-0.55824,0.10712
-0.032117,-0.095718,-0.020815,-0.020581,-0.023385,-0.11247,-0.0062643,-0.11283,0.010811,-0.015336,-0.0083603,-0.041972,-0.3097,0.014692,-0.16052,-0.9366,-0.014955,0.14952,0.010286,0.096495,0.19718,0.10222,-0.76433,0.052577
-0.029868,-0.093796,-0.022325,-0.015837,-0.020039,-0.10997,0.0044714,-0.10321,0.013857,-0.0089307,-0.011081,-0.050067,-0.24367,-0.015291,-0.1858,-1.0762,-0.014626,0.1386,0.022619,0.093075,0.18034,0.10452,-0.88571,-0.00353
-0.025029,-0.087864,-0.021463,-0.013471,-0.021177,-0.097523,0.01242,-0.096085,0.018299,0.0030696,-0.01217,-0.065032,-0.17097,-0.036234,-0.19763,-0.97774,-0.013376,0.12998,0.028834,0.082727,0.16249,0.1124,-0.91143,-0.049214
-0.019067,-0.073738,-0.018302,-0.013638,-0.026517,-0.083895,0.016545,-0.092094,0.020572,0.016209,-0.01038,-0.08397,-0.098374,-0.047575,-0.19999,-0.63675,-0.0088628,0.1273,-0.0034368,0.07038,0.14604,0.12708,-0.84776,-0.087181
-0.014002,-0.053707,-0.014358,-0.014562,-0.036742,-0.077958,0.017366,-0.097851,0.019885,0.025999,-0.0064305,-0.099135,-0.029254,-0.052536,-0.19745,-0.14019,-0.0013699,0.1281,-0.090412,0.061122,0.12822,0.1455,-0.72189,-0.13028
-0.011268,-0.036001,-0.011231,-0.013488,-0.052018,-0.082069,0.015813,-0.12499,0.018601,0.030488,-0.0022104,-0.10208,0.039815,-0.052483,-0.19009,0.36992,0.0061689,0.12613,-0.21977,0.056857,0.10394,0.16082,-0.57505,-0.1882
-0.011057,-0.028827,-0.0093632,-0.0085325,-0.06952,-0.0901,0.012585,-0.18242,0.019454,0.030914,0.00095073,-0.08939,0.1152,-0.044338,-0.17246,0.76292,0.010615,0.11727,-0.3565,0.055702,0.070152,0.16554,-0.44546,-0.25802
-0.012404,-0.033764,-0.0081061,-0.0002144,-0.083121,-0.092103,0.0084341,-0.26677,0.022415,0.030281,0.0032061,-0.065521,0.19849,-0.023318,-0.13872,0.97355,0.011485,0.10375,-0.464,0.054343,0.027858,0.15547,-0.3518,-0.3271
-0.013692,-0.044159,-0.006862,0.0086133,-0.086869,-0.082205,0.0047833,-0.3588,0.024338,0.031016,0.0055015,-0.040046,0.28268,0.011978,-0.089892,1.0146,0.011695,0.092794,-0.52607,0.051097,-0.018985,0.13159,-0.28971,-0.38469
-0.013258,-0.050101,-0.0059605,0.01463,-0.07998,-0.063573,0.0037098,-0.43013,0.021781,0.033358,0.0081524,-0.021283,0.3569,0.057114,-0.036403,0.94988,0.01532,0.090862,-0.55414,0.047098,-0.066006,0.099218,-0.24472,-0.43098
-0.010055,-0.046044,-0.0062441,0.016499,-0.068798,-0.046602,0.00693,-0.45717,0.01439,0.035518,0.010203,-0.011278,0.41559,0.10418,0.0073979,0.85206,0.024035,0.098188,-0.57496,0.044892,-0.10999,0.065216,-0.21104,-0.47504
-0.004319,-0.034777,-0.0078088,0.015985,-0.063052,-0.041798,0.014427,-0.43354,0.0057048,0.035506,0.010104,-0.0060507,0.46327,0.14647,0.032783,0.77105,0.035172,0.10796,-0.60838,0.046,-0.14866,0.035292,-0.20062,-0.52411
0.0022008,-0.024455,-0.0093489,0.016638,-0.068704,-0.052744,0.023889,-0.37282,0.00067935,0.033392,0.0067987,-0.00048488,0.50925,0.18101,0.042273,0.72262,0.04323,0.11049,-0.65234,0.049632,-0.17964,0.012453,-0.23501,-0.57511
0.0070096,-0.021194,-0.0090057,0.020855,-0.083119,-0.074137,0.03167,-0.30032,0.0021459,0.032359,-5.3029e-005,0.006696,0.5565,0.20701,0.04631,0.69332,0.043916,0.0992,-0.68562,0.053442,-0.19994,-0.0032808,-0.32753,-0.61712
0.0085233,-0.023511,-0.0060603,0.027644,-0.096886,-0.095811,0.034781,-0.23955,0.0091886,0.037555,-0.010905,0.012219,0.59461,0.22246,0.053577,0.65367,0.037606,0.074311,-0.68474,0.0554,-0.20655,-0.014246,-0.47104,-0.64317
0.0074848,-0.023273,-0.0018614,0.033028,-0.10113,-0.10946,0.032486,-0.2024,0.018468,0.053107,-0.027095,0.012121,0.604,0.22288,0.063101,0.57329,0.029369,0.042468,-0.6405,0.055136,-0.19787,-0.023794,-0.64135,-0.66048
0.0067842,-0.012363,0.00098258,0.033021,-0.094342,-0.11332,0.026238,-0.18767,0.026938,0.079045,-0.050309,0.006288,0.56827,0.20394,0.064752,0.43389,0.025286,0.013053,-0.56189,0.053831,-0.17516,-0.034494,-0.812,-0.68889
0.0094152,0.010462,0.00053162,0.026898,-0.08311,-0.11193,0.018025,-0.18646,0.033518,0.11022,-0.080745,-0.00069789,0.48499,0.16552,0.047666,0.23569,0.027853,-0.0063597,-0.46642,0.053042,-0.14322,-0.046635,-0.96783,-0.74751
0.015962,0.038011,-0.0030493,0.018116,-0.076003,-0.11186,0.0085473,-0.18851,0.03862,0.13824,-0.1154,-0.0032453,0.36671,0.11314,0.0095897,-0.0049971,0.034126,-0.013077,-0.36743,0.053562,-0.10978,-0.058086,-1.1071,-0.84004
0.023714,0.059472,-0.0076723,0.012054,-0.07595,-0.11659,-0.0031292,-0.18544,0.042514,0.15535,-0.14814,0.00040963,0.23332,0.055297,-0.040113,-0.26409,0.038178,-0.0096458,-0.26912,0.055104,-0.083391,-0.065959,-1.2327,-0.95102
0.028399,0.067621,-0.010859,0.012288,-0.07752,-0.12439,-0.018083,-0.17082,0.044344,0.15799,-0.1719,0.0066272,0.10339,-0.00099083,-0.085462,-0.51747,0.035955,-0.0016391,-0.17138,0.056848,-0.070423,-0.06913,-1.3413,-1.0562
0.027371,0.062983,-0.011357,0.018247,-0.071443,-0.13034,-0.035553,-0.14059,0.042694,0.14771,-0.18169,0.0094947,-0.0087451,-0.052226,-0.11219,-0.7442,0.028566,0.0056991,-0.076854,0.058205,-0.072603,-0.069673,-1.4191,-1.1385
0.021695,0.052257,-0.0097039,0.025921,-0.052484,-0.13064,-0.052342,-0.095199,0.03707,0.1294,-0.17652,0.005952,-0.090492,-0.096497,-0.11311,-0.92777,0.021258,0.0099925,0.0079459,0.059157,-0.086473,-0.071774,-1.4449,-1.1963
0.015318,0.042865,-0.0075524,0.030874,-0.023977,-0.12571,-0.064311,-0.041537,0.028885,0.1085,-0.15919,-0.0014346,-0.12917,-0.13,-0.087913,-1.0608,0.0189,0.012051,0.077914,0.059922,-0.10509,-0.078668,-1.3996,-1.2379
0.01185,0.037939,-0.0064165,0.031112,0.0047587,-0.11956,-0.068777,0.0089545,0.021075,0.089113,-0.13446,-0.0062688,-0.11545,-0.1462,-0.039785,-1.1532,0.021753,0.014127,0.13426,0.060322,-0.12096,-0.089936,-1.2751,-1.2675
0.011631,0.035195,-0.0067203,0.027803,0.025785,-0.11625,-0.065734,0.04658,0.016643,0.073808,-0.10705,-0.0031303,-0.050263,-0.13945,0.026878,-1.2356,0.025178,0.017702,0.18259,0.059532,-0.12862,-0.10149,-1.0816,-1.2755
0.011617,0.02989,-0.0077148,0.023648,0.038354,-0.11649,-0.05689,0.069857,0.017171,0.063925,-0.0804,0.0083489,0.051331,-0.11061,0.106,-1.3501,0.023625,0.022526,0.22582,0.056604,-0.12578,-0.10848,-0.84782,-1.2435
0.0083168,0.019278,-0.0082687,0.020523,0.048355,-0.11747,-0.043579,0.086542,0.022219,0.059387,-0.056388,0.022945,0.16432,-0.069849,0.18827,-1.5301,0.015647,0.027376,0.26013,0.051427,-0.11315,-0.10871,-0.61259,-1.1596
0.0012846,0.0052745,-0.0079971,0.01824,0.062204,-0.11582,-0.025749,0.1077,0.029803,0.058219,-0.035515,0.032839,0.2645,-0.033613,0.26158,-1.7815,0.0057071,0.031463,0.28005,0.04521,-0.093586,-0.10389,-0.40734,-1.032
-0.0059346,-0.0064179,-0.0078747,0.015141,0.080743,-0.11094,-0.0032683,0.13958,0.037417,0.057005,-0.017405,0.031877,0.33894,-0.016858,0.31451,-2.0793,0.0011456,0.035012,0.28907,0.039865,-0.071134,-0.097665,-0.2389,-0.88988
-0.008425,-0.010007,-0.0096774,0.0097371,0.098437,-0.10553,0.021568,0.18004,0.042928,0.052895,-0.0015985,0.018516,0.38937,-0.025413,0.34099,-2.382,0.0066427,0.038534,0.30472,0.03662,-0.049896,-0.092463,-0.085019,-0.76766
-0.0039624,-0.0035428,-0.014417,0.0019984,0.10833,-0.10276,0.042976,0.22234,0.044988,0.045841,0.011545,-0.0038906,0.42677,-0.05327,0.34302,-2.6517,0.020482,0.041646,0.35029,0.035009,-0.032973,-0.088085,0.090568,-0.6856
0.0049437,0.0096619,-0.020919,-0.006579,0.10818,-0.1029,0.053832,0.26196,0.043137,0.038817,0.020536,-0.029161,0.46131,-0.086488,0.3294,-2.8653,0.035407,0.042704,0.43683,0.033095,-0.021878,-0.083121,0.31145,-0.63999
0.012808,0.023166,-0.025937,-0.013927,0.10239,-0.10265,0.05001,0.29989,0.03788,0.035173,0.023623,-0.051302,0.49455,-0.11117,0.31104,-3.0121,0.043188,0.039708,0.54967,0.028667,-0.016883,-0.077441,0.56922,-0.60983
0.015243,0.031582,-0.026167,-0.0185,0.09824,-0.0982,0.033666,0.33955,0.030733,0.035011,0.020465,-0.066744,0.51841,-0.12055,0.2956,-3.0868,0.039346,0.031757,0.65137,0.02026,-0.018034,-0.072992,0.82691,-0.57373
0.011957,0.033697,-0.020864,-0.019763,0.10006,-0.089371,0.012548,0.3812,0.023833,0.033894,0.013188,-0.074659,0.52065,-0.11727,0.28436,-3.0874,0.024783,0.019782,0.70086,0.00725,-0.025791,-0.071939,1.0429,-0.52338
0.0063583,0.032214,-0.012911,-0.018031,0.1062,-0.081076,-0.0046515,0.41993,0.018903,0.0256,0.0056313,-0.075604,0.49277,-0.10987,0.27313,-3.0202,0.0038762,0.0058687,0.67526,-0.010619,-0.04041,-0.07405,1.196,-0.46419
0.0025019,0.030565,-0.0071481,-0.014141,0.1112,-0.080472,-0.013722,0.44974,0.016068,0.0071688,0.0010619,-0.070091,0.43511,-0.10651,0.25653,-2.9025,-0.01875,-0.0083629,0.57923,-0.033231,-0.060479,-0.076163,1.2932,-0.4047
0.0021938,0.029743,-0.0069775,-0.0093445,0.11075,-0.091939,-0.017164,0.46942,0.013612,-0.017781,0.00017358,-0.058804,0.35688,-0.10996,0.23288,-2.7569,-0.040132,-0.022965,0.4371,-0.059305,-0.082137,-0.074617,1.356,-0.34565
0.0045253,0.028018,-0.01184,-0.0053081,0.10498,-0.11395,-0.021571,0.48432,0.009279,-0.040374,0.0011268,-0.044385,0.27189,-0.1166,0.20636,-2.5974,-0.058687,-0.039288,0.27633,-0.085701,-0.10033,-0.068478,1.4012,-0.27821
0.0076178,0.023639,-0.01765,-0.0037264,0.097794,-0.14031,-0.032181,0.50173,0.0023518,-0.051809,0.001585,-0.032555,0.19307,-0.11935,0.18492,-2.4208,-0.07299,-0.058098,0.1153,-0.10806,-0.11168,-0.060463,1.4335,-0.19255
0.010474,0.017731,-0.019917,-0.0054315,0.093284,-0.16461,-0.048747,0.52364,-0.005363,-0.048942,0.00086811,-0.030193,0.12853,-0.11201,0.17516,-2.2123,-0.081409,-0.077812,-0.037817,-0.12283,-0.11685,-0.054583,1.4539,-0.088667
0.013207,0.014289,-0.017088,-0.0096019,0.092771,-0.18399,-0.065821,0.54366,-0.010872,-0.036212,0.00024722,-0.040669,0.08022,-0.092099,0.17776,-1.9608,-0.083092,-0.094884,-0.17904,-0.12923,-0.1204,-0.052691,1.4713,0.019815
0.015896,0.017,-0.011475,-0.013983,0.094663,-0.19941,-0.077059,0.5508,-0.012776,-0.022706,0.0012138,-0.060134,0.045099,-0.060814,0.18645,-1.6712,-0.079202,-0.10685,-0.30376,-0.12951,-0.1279,-0.053221,1.5039,0.11204
0.017721,0.025766,-0.0071888,-0.016348,0.096682,-0.2124,-0.080095,0.53755,-0.012931,-0.016545,0.0035177,-0.078778,0.017846,-0.020988,0.19097,-1.3623,-0.072925,-0.11587,-0.40756,-0.12721,-0.14245,-0.053269,1.5677,0.17202
0.01753,0.036278,-0.0069329,-0.01623,0.098111,-0.22155,-0.078141,0.50575,-0.015118,-0.020365,0.0049643,-0.087243,-0.0058989,0.024643,0.18144,-1.0528,-0.067955,-0.1291,-0.48954,-0.12491,-0.16302,-0.051898,1.6631,0.19815
0.015206,0.043188,-0.010281,-0.015389,0.10022,-0.22187,-0.077251,0.46629,-0.021592,-0.030664,0.003213,-0.083524,-0.027447,0.073122,0.15103,-0.74969,-0.066571,-0.15429,-0.55265,-0.12324,-0.18558,-0.051433,1.7735,0.20432
0.012212,0.044094,-0.014559,-0.016346,0.1049,-0.2077,-0.081652,0.43296,-0.0307,-0.04107,-0.0021367,-0.074531,-0.045623,0.11922,0.095827,-0.44933,-0.068775,-0.19288,-0.59934,-0.12156,-0.20564,-0.055582,1.8745,0.21236
0.010479,0.040763,-0.017194,-0.01999,0.11295,-0.17685,-0.091002,0.41498,-0.038011,-0.047142,-0.0091403,-0.070668,-0.059956,0.15418,0.013683,-0.15055,-0.072907,-0.23638,-0.62693,-0.11923,-0.22042,-0.066427,1.9457,0.24069
0.010538,0.036648,-0.017394,-0.024286,0.1235,-0.13267,-0.10158,0.4127,-0.040154,-0.049435,-0.015096,-0.077812,-0.074022,0.16798,-0.09555,0.13416,-0.076981,-0.27006,-0.62795,-0.11614,-0.22929,-0.083357,1.9741,0.29564
0.010747,0.033121,-0.015987,-0.025446,0.13474,-0.082533,-0.11001,0.41811,-0.037852,-0.05283,-0.018534,-0.093249,-0.09535,0.15512,-0.22786,0.38116,-0.079628,-0.28211,-0.59616,-0.11204,-0.2331,-0.10479,1.9505,0.37021
0.0085074,0.027967,-0.014087,-0.020935,0.14533,-0.033852,-0.11593,0.41923,-0.035227,-0.062667,-0.019721,-0.10857,-0.13045,0.12046,-0.37324,0.57152,-0.080244,-0.27154,-0.53293,-0.1061,-0.23329,-0.13033,1.868,0.45028
0.0025365,0.017518,-0.012171,-0.012063,0.15524,0.0091965,-0.12134,0.4057,-0.03601,-0.080373,-0.019395,-0.1165,-0.1779,0.079685,-0.51686,0.70776,-0.078719,-0.24804,-0.44819,-0.097432,-0.23116,-0.16031,1.7284,0.52396
-0.0057935,0.00058289,-0.010338,-0.0039474,0.16545,0.046033,-0.12729,0.37329,-0.040194,-0.1017,-0.017224,-0.11564,-0.22523,0.052175,-0.64351,0.81798,-0.075174,-0.22388,-0.35461,-0.086444,-0.22697,-0.19235,1.5509,0.58755
-0.013238,-0.019285,-0.00909,-0.0025027,0.17669,0.077296,-0.13139,0.32574,-0.044185,-0.1189,-0.01179,-0.10981,-0.25387,0.049337,-0.74256,0.94322,-0.069731,-0.20435,-0.26046,-0.075502,-0.21905,-0.21841,1.3708,0.64448
-0.01696,-0.035249,-0.0094039,-0.010383,0.18817,0.10226,-0.12844,0.27298,-0.044093,-0.12532,-0.0022957,-0.1035,-0.25036,0.066089,-0.80977,1.1163,-0.062106,-0.18473,-0.16721,-0.067527,-0.20345,-0.22612,1.2237,0.69866
-0.016438,-0.041498,-0.011753,-0.024853,0.19741,0.11868,-0.11416,0.2262,-0.038922,-0.11915,0.0096088,-0.0981,-0.21669,0.081924,-0.84538,1.3451,-0.051255,-0.15609,-0.073929,-0.063265,-0.17539,-0.20498,1.1226,0.74807
-0.013507,-0.03727,-0.015127,-0.039379,0.20171,0.12536,-0.088601,0.19171,-0.030829,-0.10368,0.01982,-0.09163,-0.17222,0.071953,-0.85089,1.6086,-0.035695,-0.11444,0.015805,-0.059638,-0.13218,-0.15321,1.0471,0.78432
-0.010639,-0.027567,-0.017364,-0.048039,0.20023,0.12513,-0.056381,0.16702,-0.022637,-0.083947,0.02396,-0.081053,-0.14465,0.021362,-0.82798,1.8652,-0.014809,-0.065335,0.090989,-0.051269,-0.075973,-0.079679,0.95361,0.79856
-0.0089722,-0.019813,-0.016908,-0.049559,0.19529,0.12499,-0.02352,0.1421,-0.015305,-0.062834,0.020157,-0.064294,-0.15491,-0.065754,-0.77993,2.0696,0.0096068,-0.020174,0.1373,-0.034697,-0.014305,0.00077834,0.80209,0.78897
-0.0076949,-0.018713,-0.014502,-0.047808,0.19142,0.13262,0.0065376,0.10565,-0.0077679,-0.039682,0.010239,-0.040366,-0.20511,-0.16853,-0.71313,2.1903,0.03301,0.01196,0.14559,-0.011997,0.042584,0.074867,0.57815,0.76277
-0.0052107,-0.023071,-0.013044,-0.048246,0.19265,0.15144,0.034427,0.053051,0.0010611,-0.012653,-0.0015829,-0.0087193,-0.27693,-0.26062,-0.63603,2.2229,0.049841,0.029825,0.1187,0.0096436,0.086072,0.13533,0.29718,0.73022
-0.0010753,-0.02719,-0.01532,-0.053148,0.19983,0.17809,0.062926,-0.009343,0.010327,0.017372,-0.011472,0.030306,-0.34168,-0.32332,-0.55566,2.1959,0.056496,0.038546,0.071608,0.022732,0.11247,0.17971,-0.010497,0.69488
0.0029169,-0.026071,-0.021367,-0.059654,0.21014,0.20436,0.093493,-0.066563,0.017293,0.044974,-0.018015,0.073864,-0.37632,-0.35269,-0.47509,2.1633,0.053476,0.043295,0.02467,0.025075,0.12325,0.20609,-0.31987,0.6483
0.0034933,-0.020338,-0.027816,-0.062418,0.21903,0.22228,0.12432,-0.10267,0.019315,0.062404,-0.022165,0.11596,-0.37596,-0.35739,-0.39457,2.1841,0.045017,0.044177,-0.0062577,0.021446,0.1225,0.2112,-0.6222,0.57488
-0.0018686,-0.016587,-0.030078,-0.058612,0.22332,0.22864,0.15138,-0.10849,0.015889,0.06433,-0.025459,0.1497,-0.35555,-0.34992,-0.3155,2.2968,0.036409,0.03666,-0.017235,0.019693,0.1138,0.19316,-0.922,0.46398
-0.012757,-0.022261,-0.02579,-0.050842,0.22293,0.2258,0.1715,-0.084562,0.0090445,0.05138,-0.028232,0.17151,-0.33967,-0.33771,-0.24321,2.4987,0.030949,0.016622,-0.017326,0.024433,0.099145,0.15619,-1.2262,0.3208
-0.025322,-0.038901,-0.016775,-0.045228,0.22008,0.21886,0.18471,-0.038326,0.0018802,0.029606,-0.029391,0.18386,-0.34683,-0.32021,-0.18515,2.7447,0.028648,-0.014786,-0.022943,0.033644,0.080427,0.11236,-1.534,0.16689
-0.034054,-0.059494,-0.0079123,-0.046206,0.21707,0.21179,0.19417,0.02118,-0.0034599,0.0062353,-0.027794,0.19341,-0.37857,-0.29303,-0.14541,2.9643,0.027257,-0.050658,-0.048559,0.04095,0.061805,0.077401,-1.8318,0.029462
-0.034918,-0.072695,-0.0038109,-0.052604,0.21437,0.20531,0.20373,0.086519,-0.0068344,-0.014918,-0.023805,0.20564,-0.42028,-0.25519,-0.12045,3.0897,0.024435,-0.082372,-0.098826,0.041404,0.050232,0.063361,-2.0929,-0.073364
-0.02785,-0.070959,-0.0058705,-0.058508,0.21042,0.19761,0.21524,0.15141,-0.0095734,-0.034875,-0.019452,0.22017,-0.45276,-0.21283,-0.10069,3.0805,0.0193,-0.10463,-0.16637,0.035618,0.052694,0.072795,-2.2806,-0.14119
-0.016888,-0.056048,-0.011787,-0.058197,0.20287,0.18645,0.22747,0.20887,-0.013006,-0.056819,-0.016927,0.231,-0.46572,-0.17574,-0.077635,2.9356,0.012543,-0.11764,-0.23636,0.02884,0.071561,0.09831,-2.3557,-0.18862
-0.0076504,-0.037254,-0.017487,-0.050897,0.18984,0.17074,0.2373,0.25132,-0.017279,-0.081724,-0.016786,0.23181,-0.46316,-0.14947,-0.051123,2.6903,0.0056102,-0.12536,-0.29499,0.026219,0.10148,0.12689,-2.2893,-0.23464
-0.0037248,-0.023732,-0.019752,-0.041289,0.17033,0.1507,0.24196,0.27353,-0.021335,-0.106,-0.017538,0.22169,-0.45732,-0.13033,-0.030335,2.4027,-6.9059e-005,-0.13185,-0.33633,0.028706,0.13078,0.1458,-2.0754,-0.29228
-0.004379,-0.017331,-0.017723,-0.035484,0.14417,0.12714,0.24069,0.27565,-0.023953,-0.12324,-0.017061,0.20639,-0.45673,-0.10885,-0.026901,2.1337,-0.0033949,-0.13879,-0.36331,0.033051,0.14721,0.14703,-1.7376,-0.36553
-0.0052609,-0.011959,-0.012754,-0.035968,0.11207,0.10119,0.23452,0.26266,-0.024914,-0.12886,-0.014561,0.19394,-0.4586,-0.079987,-0.044954,1.926,-0.0037959,-0.1457,-0.38245,0.035366,0.14443,0.129,-1.3238,-0.45348
-0.0017189,8.5622e-005,-0.0072651,-0.039735,0.076095,0.074656,0.22487,0.23975,-0.025283,-0.12401,-0.011218,0.18857,-0.45144,-0.050722,-0.076006,1.7884,-0.0016619,-0.15192,-0.39639,0.034646,0.12452,0.095893,-0.89113,-0.55633
0.0075176,0.020327,-0.003543,-0.040886,0.039691,0.050275,0.21234,0.207,-0.02655,-0.11557,-0.0088868,0.18815,-0.425,-0.036706,-0.10312,1.6927,0.0012852,-0.15815,-0.40018,0.033165,0.094932,0.054985,-0.4888,-0.67716
0.01895,0.041614,-0.0029024,-0.035321,0.0066226,0.030863,0.19672,0.15816,-0.029354,-0.11186,-0.0080676,0.18702,-0.37894,-0.048438,-0.11168,1.5874,0.0023982,-0.16626,-0.3845,0.033891,0.062405,0.01301,-0.14772,-0.8179
0.026346,0.053145,-0.0052446,-0.023675,-0.020919,0.017516,0.17808,0.085159,-0.032864,-0.11712,-0.0070753,0.18126,-0.32306,-0.078227,-0.098609,1.422,-0.00051512,-0.17776,-0.34347,0.037702,0.029049,-0.026956,0.12139,-0.97322
0.024907,0.048833,-0.0090615,-0.010454,-0.043583,0.008173,0.1575,-0.014328,-0.035356,-0.12873,-0.0032563,0.17146,-0.27003,-0.10076,-0.073135,1.1692,-0.0076976,-0.19263,-0.28124,0.042902,-0.0062243,-0.065902,0.32339,-1.1275
0.014644,0.032072,-0.012055,-0.00051293,-0.06428,-0.0019901,0.13651,-0.13171,-0.035487,-0.13927,0.0047876,0.16102,-0.22732,-0.089942,-0.048513,0.83211,-0.017162,-0.20965,-0.21137,0.047004,-0.042482,-0.10596,0.47189,-1.258
0.00050823,0.012947,-0.012321,0.0040802,-0.085911,-0.018154,0.11563,-0.24863,-0.033177,-0.14193,0.015905,0.15215,-0.19501,-0.040255,-0.0315,0.43562,-0.026125,-0.22773,-0.14913,0.048725,-0.072829,-0.14635,0.58167,-1.3416
-0.010895,0.00022862,-0.0095493,0.0044554,-0.10901,-0.042923,0.093572,-0.34453,-0.029392,-0.13507,0.027093,0.14381,-0.16959,0.024816,-0.017862,0.0087567,-0.033142,-0.24698,-0.102,0.04837,-0.085937,-0.18209,0.66084,-1.3632
-0.015671,-0.0053104,-0.0054689,0.0027842,-0.13108,-0.074824,0.068226,-0.40632,-0.025133,-0.1227,0.03549,0.13324,-0.14865,0.065984,0.0026957,-0.42906,-0.039146,-0.26822,-0.065741,0.046721,-0.072684,-0.20759,0.70483,-1.3196
-0.014916,-0.010876,-0.0030453,-0.00021142,-0.14811,-0.10917,0.038861,-0.43455,-0.020633,-0.11046,0.039983,0.11913,-0.1313,0.054646,0.036393,-0.87119,-0.046401,-0.29146,-0.029289,0.043931,-0.033203,-0.22245,0.69687,-1.2218
-0.013311,-0.025063,-0.0047369,-0.0057698,-0.15718,-0.14051,0.0076695,-0.4418,-0.015514,-0.10085,0.041336,0.10294,-0.11452,-0.0066802,0.078418,-1.3174,-0.056157,-0.31469,0.01568,0.039584,0.02104,-0.23413,0.61885,-1.092
-0.015219,-0.050096,-0.01077,-0.015186,-0.15835,-0.165,-0.020882,-0.44399,-0.0097301,-0.091514,0.041124,0.087305,-0.090576,-0.085167,0.11486,-1.7639,-0.067013,-0.33424,0.068065,0.03366,0.072015,-0.25364,0.46958,-0.95807
-0.021362,-0.079167,-0.018583,-0.027286,-0.15475,-0.18142,-0.042577,-0.45007,-0.0042925,-0.078375,0.040639,0.073549,-0.049908,-0.13905,0.13221,-2.1952,-0.075485,-0.34625,0.11872,0.027225,0.10391,-0.28689,0.27979,-0.84378
-0.028636,-0.101,-0.024032,-0.037796,-0.15085,-0.19069,-0.055906,-0.45729,-0.0009815,-0.060596,0.040512,0.061403,0.011195,-0.14403,0.12722,-2.5811,-0.078391,-0.34817,0.15804,0.022115,0.11062,-0.32834,0.11061,-0.75832
-0.033026,-0.10808,-0.023922,-0.041648,-0.15032,-0.19466,-0.062552,-0.45591,-0.0011397,-0.042963,0.040923,0.051387,0.084415,-0.10652,0.10984,-2.8811,-0.075166,-0.339,0.1828,0.019937,0.097713,-0.36267,0.030743,-0.69099
-0.033109,-0.10208,-0.018291,-0.036722,-0.15433,-0.19506,-0.065702,-0.4394,-0.0045225,-0.033021,0.041798,0.047172,0.15064,-0.056279,0.097186,-3.0569,-0.06823,-0.31829,0.19665,0.021256,0.078285,-0.37343,0.081998,-0.61603
-0.031129,-0.092388,-0.010749,-0.026012,-0.16128,-0.19297,-0.067723,-0.41165,-0.0091728,-0.035015,0.042797,0.054899,0.18914,-0.025307,0.10303,-3.0878,-0.061192,-0.28534,0.20454,0.025448,0.065736,-0.35159,0.25362,-0.50699
-0.030806,-0.088995,-0.0061871,-0.01613,-0.16791,-0.18894,-0.069127,-0.38445,-0.012463,-0.045817,0.0434,0.079378,0.18875,-0.027994,0.13012,-2.9835,-0.056414,-0.23952,0.20694,0.031048,0.067693,-0.29775,0.48344,-0.35251
-0.03383,-0.095343,-0.007248,-0.012908,-0.17114,-0.1836,-0.069411,-0.36722,-0.012555,-0.056656,0.043386,0.12012,0.1537,-0.054554,0.16999,-2.7837,-0.053843,-0.18194,0.19914,0.036213,0.084081,-0.21764,0.68731,-0.16313
-0.038205,-0.10657,-0.0122,-0.017281,-0.16991,-0.17835,-0.068702,-0.35802,-0.0093076,-0.059593,0.0434,0.1703,0.10048,-0.079799,0.20944,-2.5449,-0.051802,-0.11703,0.17583,0.039205,0.1093,-0.11713,0.79947,0.035834
-0.039945,-0.11412,-0.016183,-0.024689,-0.16586,-0.17533,-0.068503,-0.34465,-0.0041694,-0.053441,0.04492,0.21885,0.048902,-0.079938,0.23886,-2.3217,-0.048771,-0.052579,0.13641,0.039022,0.13603,-0.0024974,0.79865,0.22007
-0.036603,-0.11271,-0.015149,-0.028567,-0.16234,-0.17629,-0.070799,-0.31519,0.00069374,-0.044119,0.049303,0.25336,0.013795,-0.04663,0.25664,-2.1515,-0.044548,0.0022226,0.086504,0.036033,0.1579,0.11453,0.70539,0.37913
-0.029437,-0.10391,-0.0093898,-0.025279,-0.16223,-0.18095,-0.076336,-0.26872,0.0034507,-0.039132,0.056537,0.2619,0.0019146,0.0093165,0.2677,-2.0494,-0.04002,0.039716,0.034783,0.03207,0.16995,0.21364,0.55658,0.51708
-0.022201,-0.09373,-0.0035648,-0.016666,-0.16583,-0.18609,-0.083709,-0.21632,0.003364,-0.04087,0.064786,0.23457,0.013973,0.065395,0.27781,-2.0092,-0.036098,0.055695,-0.011555,0.02954,0.16827,0.27106,0.37852,0.64159
-0.017732,-0.086898,-0.0029511,-0.0082626,-0.1704,-0.18677,-0.090202,-0.17149,0.0010691,-0.044293,0.071386,0.16674,0.047979,0.10052,0.28797,-2.0093,-0.032946,0.049232,-0.04945,0.029923,0.15063,0.27195,0.1779,0.75101
-0.015554,-0.082772,-0.0089509,-0.0046864,-0.17182,-0.17925,-0.09378,-0.13897,-0.0016615,-0.040713,0.074681,0.064058,0.10042,0.10568,0.29257,-2.0197,-0.030021,0.021095,-0.079777,0.032736,0.11849,0.22151,-0.046711,0.83121
-0.012816,-0.076551,-0.017673,-0.0059242,-0.16729,-0.16355,-0.094574,-0.11226,-0.002653,-0.024294,0.075259,-0.054779,0.16496,0.086335,0.28242,-2.0154,-0.026552,-0.027263,-0.10549,0.035986,0.078559,0.14531,-0.28674,0.86585
-0.0076772,-0.064442,-0.022854,-0.0074478,-0.157,-0.14341,-0.094576,-0.081781,-0.00038954,0.0039896,0.075447,-0.16219,0.23105,0.056304,0.25082,-1.9884,-0.021803,-0.092773,-0.1295,0.037959,0.041734,0.076684,-0.51665,0.85265
-0.0018134,-0.048084,-0.020683,-0.0039712,-0.14348,-0.12327,-0.095798,-0.045236,0.0050684,0.037639,0.077344,-0.23301,0.2849,0.028421,0.19884,-1.9535,-0.015004,-0.16862,-0.15253,0.038943,0.018965,0.039085,-0.70387,0.81206
0.00061403,-0.034212,-0.012525,0.0062318,-0.12932,-0.10466,-0.098507,-0.010042,0.011958,0.069341,0.080951,-0.25684,0.31323,0.0087675,0.1363,-1.9372,-0.0054065,-0.24339,-0.17152,0.041297,0.016495,0.035003,-0.82609,0.77881
-0.0031492,-0.029605,-0.003484,0.019884,-0.11525,-0.085223,-0.10111,0.014305,0.017799,0.094946,0.084022,-0.24264,0.30786,-0.0023336,0.07731,-1.9565,0.0072962,-0.30341,-0.17932,0.047569,0.033639,0.048405,-0.88022,0.77993
-0.011227,-0.035436,0.0016956,0.031181,-0.10058,-0.061448,-0.1018,0.026245,0.021001,0.11389,0.083828,-0.21159,0.26891,-0.0050115,0.032875,-2.0023,0.022555,-0.33745,-0.16721,0.058112,0.064337,0.057717,-0.87645,0.81461
-0.017756,-0.045711,0.0018886,0.036117,-0.085404,-0.032936,-0.1005,0.034642,0.021937,0.12669,0.079341,-0.18315,0.20541,0.0041128,0.0050969,-2.0396,0.039118,-0.34071,-0.12939,0.070351,0.1006,0.049628,-0.82501,0.85234
-0.01721,-0.051235,-0.00037319,0.0352,-0.072301,-0.0043213,-0.099139,0.05134,0.022466,0.13235,0.071942,-0.16453,0.13354,0.030769,-0.012973,-2.0265,0.055703,-0.31526,-0.067126,0.080581,0.13482,0.02491,-0.72993,0.85318
-0.0088497,-0.046168,-0.0015432,0.032542,-0.065372,0.017102,-0.099934,0.080973,0.0241,0.12822,0.064025,-0.15106,0.072991,0.078053,-0.031839,-1.9353,0.071462,-0.26691,0.010673,0.087022,0.15968,-0.0056136,-0.59623,0.79655
0.0025353,-0.03213,0.00014531,0.03227,-0.067065,0.026333,-0.10297,0.11758,0.026259,0.11219,0.056809,-0.13555,0.042162,0.14235,-0.058564,-1.7626,0.085662,-0.20159,0.091106,0.091558,0.16762,-0.02999,-0.4422,0.69717
0.01031,-0.0167,0.0038262,0.035312,-0.075608,0.024157,-0.1054,0.15083,0.026345,0.085302,0.049381,-0.11744,0.052592,0.21361,-0.093558,-1.5228,0.097016,-0.12416,0.1632,0.09852,0.15263,-0.042066,-0.30156,0.59536
0.011022,-0.0074437,0.0071956,0.039133,-0.085753,0.016261,-0.10322,0.17552,0.021916,0.052564,0.039843,-0.10357,0.10406,0.27912,-0.13318,-1.2362,0.10377,-0.039809,0.22243,0.11128,0.11454,-0.042858,-0.20826,0.52914
0.0066632,-0.0059747,0.0083339,0.040431,-0.092618,0.0087046,-0.094405,0.19549,0.013324,0.021476,0.02738,-0.10072,0.18235,0.32678,-0.17504,-0.92239,0.10498,0.044519,0.27145,0.12934,0.062322,-0.037466,-0.17436,0.50948
0.0025166,-0.0065924,0.0067661,0.038297,-0.095394,0.0034399,-0.080918,0.21859,0.0043622,-0.00088167,0.013266,-0.10779,0.26183,0.34544,-0.22042,-0.60093,0.10198,0.12156,0.31704,0.14812,0.012241,-0.03101,-0.18021,0.51697
0.0027083,-0.00057445,0.0034151,0.035084,-0.097488,-0.0025885,-0.067707,0.24777,-9.9099e-005,-0.010526,-9.1457e-005,-0.11586,0.31322,0.32403,-0.27089,-0.29194,0.098268,0.1875,0.36572,0.16188,-0.020041,-0.026256,-0.18831,0.52018
0.0072752,0.017031,-8.3212e-005,0.034297,-0.10275,-0.014291,-0.059434,0.2766,0.002159,-0.0077791,-0.010958,-0.11631,0.31472,0.25339,-0.32187,-0.011004,0.097375,0.24456,0.42087,0.16738,-0.028455,-0.02347,-0.17217,0.4993
0.012906,0.043186,-0.0021783,0.037505,-0.11107,-0.034013,-0.057382,0.29314,0.0087636,0.003405,-0.019022,-0.1094,0.26167,0.13219,-0.35983,0.23874,0.10009,0.29903,0.48277,0.1658,-0.019828,-0.021548,-0.13817,0.45657
0.016211,0.06841,-0.0020613,0.043041,-0.11745,-0.059432,-0.059024,0.28883,0.014544,0.01753,-0.024445,-0.10498,0.16977,-0.026503,-0.3677,0.468,0.10354,0.35521,0.55061,0.16171,-0.0083623,-0.019287,-0.12416,0.40847
0.016423,0.083018,-1.1901e-006,0.047575,-0.11555,-0.085252,-0.060483,0.26513,0.015801,0.030038,-0.026522,-0.11421,0.068848,-0.19456,-0.33651,0.6918,0.10315,0.40984,0.62407,0.1599,-0.0051066,-0.01607,-0.17701,0.36988
0.01537,0.083464,0.0028687,0.048995,-0.10286,-0.10702,-0.05978,0.23319,0.013414,0.038978,-0.023729,-0.13983,-0.010458,-0.33704,-0.27504,0.91523,0.096087,0.4522,0.70285,0.16239,-0.010441,-0.011615,-0.32722,0.34444
0.015238,0.074212,0.0052953,0.047908,-0.082938,-0.12383,-0.058161,0.20715,0.011963,0.045142,-0.015408,-0.1735,-0.050284,-0.42607,-0.20915,1.127,0.083319,0.47028,0.78474,0.16743,-0.015197,-0.0049531,-0.5766,0.3263
0.016447,0.063896,0.006659,0.046479,-0.062604,-0.13781,-0.058508,0.19617,0.015491,0.050844,-0.0033528,-0.20235,-0.051498,-0.45183,-0.16922,1.3069,0.068592,0.45866,0.86452,0.17084,-0.0090606,0.0065226,-0.90085,0.30747
0.017504,0.058873,0.0070614,0.045879,-0.046486,-0.15104,-0.062321,0.20027,0.02369,0.058292,0.0085861,-0.21821,-0.028549,-0.42377,-0.17276,1.442,0.055177,0.42152,0.93573,0.16856,0.010729,0.026735,-1.2568,0.28255
0.01661,0.059043,0.0066797,0.044942,-0.033279,-0.1627,-0.068014,0.21169,0.032021,0.068557,0.016865,-0.22135,0.0027845,-0.36169,-0.21388,1.5364,0.043026,0.36851,0.99419,0.1587,0.037106,0.058736,-1.5858,0.24858
0.013359,0.058928,0.0051711,0.041401,-0.016766,-0.16891,-0.072023,0.22021,0.035761,0.081438,0.020527,-0.21613,0.035676,-0.28348,-0.26713,1.6079,0.028593,0.30694,1.0405,0.14188,0.058399,0.10162,-1.816,0.20476
0.0090559,0.05286,0.0020005,0.034507,0.0095122,-0.16538,-0.071777,0.21894,0.034278,0.09572,0.021385,-0.20392,0.073047,-0.19822,-0.30371,1.6726,0.0074525,0.2369,1.0784,0.11995,0.066287,0.14868,-1.8742,0.15532
0.0057034,0.040097,-0.0024311,0.026372,0.047994,-0.15072,-0.067821,0.20757,0.031501,0.10921,0.022118,-0.18063,0.11905,-0.10895,-0.30909,1.7317,-0.022195,0.1535,1.1109,0.09422,0.060327,0.18876,-1.7117,0.11206
0.0047546,0.025913,-0.0061136,0.020489,0.09678,-0.12739,-0.063134,0.19153,0.031988,0.11863,0.02414,-0.14126,0.16919,-0.021545,-0.29022,1.7709,-0.057507,0.054097,1.1364,0.064371,0.046455,0.21046,-1.3323,0.090316
0.0065517,0.017987,-0.0063755,0.018592,0.1532,-0.099309,-0.060113,0.17791,0.036167,0.12011,0.027011,-0.086766,0.20839,0.048967,-0.26781,1.774,-0.091753,-0.055633,1.1495,0.029017,0.031691,0.20715,-0.80361,0.097428
0.01048,0.020929,-0.0020929,0.018769,0.21766,-0.068096,-0.057842,0.17074,0.039318,0.11086,0.029401,-0.026397,0.21977,0.081991,-0.26022,1.7391,-0.11735,-0.16227,1.1455,-0.012408,0.019569,0.17979,-0.23655,0.12267
0.015318,0.033046,0.0047548,0.016824,0.29366,-0.031164,-0.052127,0.16856,0.035548,0.091171,0.030258,0.027147,0.19736,0.064338,-0.27083,1.6864,-0.12936,-0.25148,1.1248,-0.057491,0.0092577,0.13633,0.25892,0.13971
0.019498,0.047592,0.0099539,0.0099483,0.38289,0.015995,-0.038499,0.16613,0.023348,0.065212,0.029191,0.065716,0.15234,0.0036997,-0.28795,1.6494,-0.12743,-0.31587,1.0921,-0.099947,-0.0018756,0.088399,0.61879,0.1234
0.021438,0.057328,0.010072,-0.0004201,0.47871,0.074539,-0.015891,0.15904,0.0075943,0.039229,0.026302,0.090446,0.10692,-0.069015,-0.29556,1.6535,-0.11507,-0.35751,1.0524,-0.13099,-0.01477,0.04728,0.84438,0.068932
0.020081,0.05897,0.0052057,-0.009228,0.56352,0.13799,0.011813,0.1478,-0.0041273,0.017855,0.022216,0.10994,0.080408,-0.11345,-0.28565,1.6952,-0.096976,-0.38348,1.0052,-0.14277,-0.026795,0.021048,0.98629,-0.0032592
0.015409,0.054467,-0.0010252,-0.01162,0.61366,0.19294,0.037454,0.13812,-0.0077971,0.0011222,0.018366,0.1341,0.078044,-0.10272,-0.26189,1.7374,-0.076224,-0.39817,0.94266,-0.13212,-0.032569,0.013328,1.1049,-0.062847
0.0085083,0.048634,-0.0043967,-0.0068317,0.61034,0.22531,0.054124,0.13702,-0.0061507,-0.015186,0.016751,0.16877,0.091155,-0.040142,-0.23323,1.7268,-0.053391,-0.39845,0.85364,-0.10255,-0.026821,0.023468,1.2322,-0.093998
0.0011354,0.045387,-0.0034218,0.0011423,0.55026,0.22851,0.058093,0.14785,-0.0057069,-0.03562,0.018815,0.21442,0.10758,0.042484,-0.20412,1.6253,-0.027949,-0.37518,0.72946,-0.063061,-0.0075425,0.047496,1.3549,-0.10874
-0.0048264,0.045525,-0.00019232,0.0067018,0.44909,0.20772,0.049537,0.16789,-0.0102,-0.060396,0.024276,0.26847,0.12326,0.10456,-0.17087,1.4365,-0.00041709,-0.31932,0.56886,-0.024265,0.022516,0.079406,1.4259,-0.13769
-0.0076941,0.047393,0.0019004,0.0069483,0.33473,0.17687,0.031296,0.19021,-0.016537,-0.083884,0.031238,0.32794,0.14507,0.12035,-0.12669,1.2064,0.026913,-0.22748,0.37963,0.0059674,0.057,0.11244,1.3925,-0.20528
-0.0062609,0.049262,0.00133,0.0034924,0.23417,0.15039,0.007075,0.20761,-0.017359,-0.098018,0.037802,0.39002,0.18284,0.090122,-0.069972,0.99451,0.051496,-0.1031,0.17727,0.025187,0.089117,0.14019,1.2254,-0.30934
-0.00037884,0.05108,-0.00043823,0.00032783,0.16172,0.1353,-0.019667,0.21525,-0.0082953,-0.09839,0.043681,0.45054,0.23705,0.032792,-0.0075169,0.83188,0.072836,0.046327,-0.017961,0.036097,0.11466,0.1575,0.93422,-0.42103
0.0083269,0.054116,-0.00067789,-0.00018534,0.11574,0.12949,-0.045907,0.21016,0.0065916,-0.088252,0.049998,0.50238,0.29302,-0.031286,0.050093,0.69656,0.09311,0.21225,-0.18514,0.043869,0.13275,0.16135,0.56164,-0.50433
0.01649,0.059164,0.0019317,0.00045631,0.0846,0.12659,-0.06881,0.18934,0.016487,-0.0769,0.057189,0.53613,0.32698,-0.092236,0.095799,0.52658,0.1151,0.38511,-0.30783,0.052708,0.14393,0.15155,0.16126,-0.53895
0.020494,0.065238,0.0063023,-0.0015188,0.056992,0.12306,-0.085622,0.14941,0.01182,-0.073263,0.063053,0.54356,0.32036,-0.14902,0.12874,0.26544,0.13908,0.55217,-0.37886,0.063515,0.14757,0.13066,-0.22825,-0.52978
0.018849,0.07007,0.010286,-0.0082519,0.029104,0.12145,-0.093918,0.089101,-0.0079492,-0.079548,0.063213,0.52181,0.27214,-0.19917,0.15045,-0.089266,0.16173,0.69697,-0.40228,0.073826,0.14104,0.10284,-0.5959,-0.49819
0.013599,0.071912,0.01267,-0.017644,0.0045024,0.12744,-0.092167,0.01238,-0.033378,-0.090027,0.054023,0.4751,0.19972,-0.23204,0.15988,-0.46828,0.17842,0.80338,-0.39077,0.079955,0.12177,0.071912,-0.94805,-0.46504
0.0091535,0.070817,0.013703,-0.024504,-0.011542,0.14369,-0.080497,-0.071067,-0.051922,-0.095962,0.035421,0.41156,0.12777,-0.23277,0.15378,-0.75829,0.18709,0.86284,-0.3598,0.080048,0.09031,0.039845,-1.2807,-0.43969
0.0089734,0.068097,0.013891,-0.024526,-0.017886,0.16617,-0.061448,-0.14974,-0.057052,-0.092645,0.01101,0.33665,0.073158,-0.19268,0.13261,-0.85893,0.19026,0.87947,-0.32246,0.076091,0.051641,0.0069593,-1.5552,-0.42158
0.012639,0.064455,0.012754,-0.017703,-0.018923,0.18625,-0.040193,-0.21631,-0.052224,-0.082724,-0.014776,0.24813,0.037234,-0.11574,0.10521,-0.73422,0.19286,0.86828,-0.28817,0.073357,0.013111,-0.026378,-1.6994,-0.4091
0.015943,0.058706,0.0091868,-0.0083673,-0.02118,0.19664,-0.023623,-0.27116,-0.046735,-0.073146,-0.039696,0.13781,0.01075,-0.015161,0.085809,-0.42801,0.19774,0.84693,-0.26478,0.077242,-0.01946,-0.058179,-1.6409,-0.40572
0.014286,0.048628,0.0030928,-0.0020871,-0.028554,0.19607,-0.018137,-0.32062,-0.047267,-0.068553,-0.064032,0.00066442,-0.01362,0.095566,0.084315,-0.036968,0.20263,0.82713,-0.26016,0.089289,-0.0446,-0.085044,-1.3537,-0.41766
0.0067052,0.033518,-0.0036497,-0.0021576,-0.040122,0.18887,-0.027022,-0.37086,-0.052216,-0.067029,-0.088106,-0.15493,-0.032392,0.20788,0.098874,0.33947,0.20153,0.81206,-0.28026,0.10498,-0.064849,-0.10409,-0.88611,-0.44671
-0.0029305,0.016185,-0.0082506,-0.0082869,-0.051838,0.18044,-0.048988,-0.42233,-0.053315,-0.062065,-0.10977,-0.30487,-0.034201,0.31529,0.11817,0.64107,0.18929,0.80096,-0.32483,0.1151,-0.083819,-0.11472,-0.3498,-0.48578
-0.0087721,0.0021742,-0.0092658,-0.017771,-0.060187,0.17298,-0.079041,-0.46909,-0.042824,-0.049074,-0.12469,-0.41933,-0.01247,0.40762,0.13214,0.85867,0.16555,0.79532,-0.38559,0.11019,-0.10309,-0.11841,0.12663,-0.52183
-0.007662,-0.0037988,-0.0077867,-0.027447,-0.064634,0.16524,-0.11135,-0.50359,-0.020169,-0.030584,-0.12929,-0.47961,0.023174,0.47104,0.14112,1.0157,0.13476,0.79953,-0.44999,0.085595,-0.12119,-0.11689,0.44962,-0.5436
-0.0017254,-0.0016272,-0.0062569,-0.034802,-0.067098,0.15573,-0.14227,-0.52301,0.0073511,-0.015177,-0.12343,-0.48985,0.047569,0.4961,0.15474,1.1379,0.10243,0.81421,-0.50846,0.044029,-0.13503,-0.11085,0.58729,-0.54823
0.003332,0.0034614,-0.0060226,-0.038174,-0.069246,0.146,-0.17147,-0.53202,0.030107,-0.01064,-0.11011,-0.47352,0.033917,0.48646,0.18145,1.234,0.071187,0.82839,-0.55881,-0.0061239,-0.14228,-0.10098,0.55808,-0.54266
0.0028287,0.0043683,-0.0060781,-0.037038,-0.069988,0.14044,-0.20059,-0.53952,0.04317,-0.017073,-0.092561,-0.45671,-0.02901,0.45844,0.21893,1.2972,0.039678,0.81906,-0.60373,-0.055713,-0.14291,-0.090126,0.39421,-0.54035
-0.0032179,-0.0025599,-0.0043037,-0.032716,-0.065292,0.14298,-0.23058,-0.55228,0.049157,-0.026153,-0.071782,-0.45028,-0.12945,0.42996,0.2545,1.3208,0.0049016,0.76138,-0.64347,-0.099828,-0.1391,-0.083632,0.107,-0.55642
-0.010366,-0.014578,3.8615e-005,-0.028549,-0.050673,0.15413,-0.25981,-0.57018,0.054869,-0.027705,-0.047111,-0.44501,-0.24034,0.4079,0.27536,1.3099,-0.034561,0.64337,-0.67127,-0.13958,-0.13384,-0.086083,-0.32292,-0.603
-0.013626,-0.024599,0.0051046,-0.028435,-0.024725,0.17128,-0.28418,-0.58672,0.064864,-0.018396,-0.019073,-0.42313,-0.3354,0.38561,0.27885,1.2804,-0.077205,0.47423,-0.67649,-0.1795,-0.12955,-0.096578,-0.92444,-0.6853
-0.011594,-0.026912,0.0078592,-0.034154,0.0088402,0.19185,-0.2989,-0.59373,0.077424,-0.0052512,0.008688,-0.37652,-0.40111,0.35292,0.27363,1.2451,-0.11984,0.2798,-0.6538,-0.2225,-0.12744,-0.10724,-1.6959,-0.79874
-0.0073721,-0.022064,0.0067695,-0.043543,0.042386,0.21605,-0.30067,-0.5864,0.086123,-0.00070614,0.0309,-0.31613,-0.43681,0.30916,0.27143,1.2035,-0.15973,0.088523,-0.61025,-0.26616,-0.12812,-0.10775,-2.5704,-0.92873
-0.0056552,-0.016868,0.0031796,-0.05141,0.068402,0.24598,-0.28913,-0.56512,0.085446,-0.012885,0.044655,-0.26451,-0.44624,0.2664,0.27793,1.1447,-0.19546,-0.081627,-0.56365,-0.3033,-0.13251,-0.093219,-3.4079,-1.0538
